Apr. 4, 2023   10:59:47
Square Wave Voltammetry
File: c:\users\lukas\onedrive\documents\wearables\chi swv analysis\test swv\pbp7.csv
Data Source:  Experiment
Instrument Model:  CHI840D
Header: 
Note: 

Init E (V) = 0
Final E (V) = -0.5
Incr E (V) = 0.004
Amplitude (V) = 0.05
Frequency (Hz) = 30
Quiet Time (sec) = 2
Sensitivity (A/V) = 1e-5

Difference:
Forward:
Reverse:

Potential/V, Diff(i/A), For(i/A), Rev(i/A)

-0.004, -2.898e-5, -1.421e-5, 1.478e-5
-0.008, -2.946e-5, -1.496e-5, 1.450e-5
-0.012, -2.941e-5, -1.511e-5, 1.430e-5
-0.016, -2.933e-5, -1.520e-5, 1.413e-5
-0.020, -2.923e-5, -1.526e-5, 1.397e-5
-0.024, -2.914e-5, -1.530e-5, 1.384e-5
-0.028, -2.907e-5, -1.534e-5, 1.372e-5
-0.032, -2.900e-5, -1.538e-5, 1.362e-5
-0.036, -2.895e-5, -1.542e-5, 1.353e-5
-0.040, -2.890e-5, -1.545e-5, 1.346e-5
-0.044, -2.887e-5, -1.548e-5, 1.339e-5
-0.048, -2.884e-5, -1.552e-5, 1.332e-5
-0.052, -2.882e-5, -1.555e-5, 1.327e-5
-0.056, -2.882e-5, -1.559e-5, 1.323e-5
-0.060, -2.882e-5, -1.563e-5, 1.319e-5
-0.064, -2.881e-5, -1.566e-5, 1.315e-5
-0.068, -2.882e-5, -1.570e-5, 1.312e-5
-0.072, -2.882e-5, -1.573e-5, 1.309e-5
-0.076, -2.882e-5, -1.576e-5, 1.306e-5
-0.080, -2.881e-5, -1.578e-5, 1.303e-5
-0.084, -2.880e-5, -1.581e-5, 1.300e-5
-0.088, -2.878e-5, -1.582e-5, 1.296e-5
-0.092, -2.875e-5, -1.583e-5, 1.293e-5
-0.096, -2.871e-5, -1.583e-5, 1.289e-5
-0.100, -2.867e-5, -1.582e-5, 1.284e-5
-0.104, -2.861e-5, -1.581e-5, 1.280e-5
-0.108, -2.854e-5, -1.580e-5, 1.275e-5
-0.112, -2.846e-5, -1.577e-5, 1.269e-5
-0.116, -2.838e-5, -1.575e-5, 1.263e-5
-0.120, -2.829e-5, -1.572e-5, 1.257e-5
-0.124, -2.820e-5, -1.569e-5, 1.251e-5
-0.128, -2.810e-5, -1.566e-5, 1.244e-5
-0.132, -2.801e-5, -1.563e-5, 1.238e-5
-0.136, -2.791e-5, -1.560e-5, 1.231e-5
-0.140, -2.782e-5, -1.557e-5, 1.225e-5
-0.144, -2.773e-5, -1.554e-5, 1.219e-5
-0.148, -2.764e-5, -1.551e-5, 1.213e-5
-0.152, -2.756e-5, -1.548e-5, 1.208e-5
-0.156, -2.749e-5, -1.545e-5, 1.204e-5
-0.160, -2.741e-5, -1.542e-5, 1.199e-5
-0.164, -2.735e-5, -1.540e-5, 1.195e-5
-0.168, -2.729e-5, -1.537e-5, 1.192e-5
-0.172, -2.723e-5, -1.534e-5, 1.189e-5
-0.176, -2.717e-5, -1.531e-5, 1.186e-5
-0.180, -2.711e-5, -1.528e-5, 1.184e-5
-0.184, -2.706e-5, -1.524e-5, 1.181e-5
-0.188, -2.700e-5, -1.521e-5, 1.179e-5
-0.192, -2.693e-5, -1.516e-5, 1.176e-5
-0.196, -2.686e-5, -1.513e-5, 1.173e-5
-0.200, -2.678e-5, -1.508e-5, 1.170e-5
-0.204, -2.670e-5, -1.503e-5, 1.167e-5
-0.208, -2.662e-5, -1.498e-5, 1.163e-5
-0.212, -2.652e-5, -1.493e-5, 1.159e-5
-0.216, -2.642e-5, -1.487e-5, 1.155e-5
-0.220, -2.631e-5, -1.482e-5, 1.150e-5
-0.224, -2.620e-5, -1.476e-5, 1.144e-5
-0.228, -2.609e-5, -1.470e-5, 1.139e-5
-0.232, -2.597e-5, -1.464e-5, 1.133e-5
-0.236, -2.585e-5, -1.458e-5, 1.127e-5
-0.240, -2.573e-5, -1.453e-5, 1.121e-5
-0.244, -2.562e-5, -1.447e-5, 1.114e-5
-0.248, -2.551e-5, -1.442e-5, 1.108e-5
-0.252, -2.539e-5, -1.438e-5, 1.102e-5
-0.256, -2.529e-5, -1.433e-5, 1.096e-5
-0.260, -2.519e-5, -1.429e-5, 1.090e-5
-0.264, -2.510e-5, -1.425e-5, 1.085e-5
-0.268, -2.501e-5, -1.422e-5, 1.080e-5
-0.272, -2.494e-5, -1.419e-5, 1.075e-5
-0.276, -2.487e-5, -1.417e-5, 1.070e-5
-0.280, -2.481e-5, -1.415e-5, 1.066e-5
-0.284, -2.475e-5, -1.414e-5, 1.061e-5
-0.288, -2.470e-5, -1.413e-5, 1.058e-5
-0.292, -2.467e-5, -1.413e-5, 1.054e-5
-0.296, -2.463e-5, -1.413e-5, 1.051e-5
-0.300, -2.461e-5, -1.414e-5, 1.047e-5
-0.304, -2.459e-5, -1.415e-5, 1.044e-5
-0.308, -2.458e-5, -1.417e-5, 1.041e-5
-0.312, -2.458e-5, -1.419e-5, 1.039e-5
-0.316, -2.459e-5, -1.422e-5, 1.036e-5
-0.320, -2.459e-5, -1.425e-5, 1.034e-5
-0.324, -2.461e-5, -1.430e-5, 1.032e-5
-0.328, -2.464e-5, -1.434e-5, 1.030e-5
-0.332, -2.467e-5, -1.439e-5, 1.027e-5
-0.336, -2.470e-5, -1.444e-5, 1.025e-5
-0.340, -2.474e-5, -1.451e-5, 1.023e-5
-0.344, -2.479e-5, -1.458e-5, 1.022e-5
-0.348, -2.485e-5, -1.465e-5, 1.019e-5
-0.352, -2.490e-5, -1.473e-5, 1.017e-5
-0.356, -2.496e-5, -1.482e-5, 1.015e-5
-0.360, -2.504e-5, -1.491e-5, 1.013e-5
-0.364, -2.511e-5, -1.501e-5, 1.011e-5
-0.368, -2.519e-5, -1.511e-5, 1.008e-5
-0.372, -2.527e-5, -1.522e-5, 1.005e-5
-0.376, -2.537e-5, -1.534e-5, 1.003e-5
-0.380, -2.546e-5, -1.546e-5, 1.000e-5
-0.384, -2.556e-5, -1.559e-5, 9.971e-6
-0.388, -2.567e-5, -1.573e-5, 9.936e-6
-0.392, -2.578e-5, -1.588e-5, 9.901e-6
-0.396, -2.589e-5, -1.603e-5, 9.864e-6
-0.400, -2.601e-5, -1.618e-5, 9.825e-6
-0.404, -2.613e-5, -1.635e-5, 9.779e-6
-0.408, -2.625e-5, -1.652e-5, 9.732e-6
-0.412, -2.638e-5, -1.670e-5, 9.681e-6
-0.416, -2.652e-5, -1.689e-5, 9.628e-6
-0.420, -2.665e-5, -1.708e-5, 9.568e-6
-0.424, -2.679e-5, -1.728e-5, 9.508e-6
-0.428, -2.694e-5, -1.750e-5, 9.442e-6
-0.432, -2.708e-5, -1.771e-5, 9.371e-6
-0.436, -2.723e-5, -1.794e-5, 9.295e-6
-0.440, -2.738e-5, -1.817e-5, 9.217e-6
-0.444, -2.754e-5, -1.841e-5, 9.132e-6
-0.448, -2.769e-5, -1.865e-5, 9.043e-6
-0.452, -2.785e-5, -1.890e-5, 8.949e-6
-0.456, -2.801e-5, -1.916e-5, 8.844e-6
-0.460, -2.816e-5, -1.943e-5, 8.739e-6
-0.464, -2.833e-5, -1.970e-5, 8.633e-6
-0.468, -2.850e-5, -1.998e-5, 8.515e-6
-0.472, -2.866e-5, -2.027e-5, 8.393e-6
-0.476, -2.882e-5, -2.056e-5, 8.266e-6
-0.480, -2.898e-5, -2.085e-5, 8.134e-6
-0.484, -2.915e-5, -2.115e-5, 7.995e-6
-0.488, -2.931e-5, -2.146e-5, 7.850e-6
-0.492, -2.947e-5, -2.177e-5, 7.702e-6
-0.496, -2.963e-5, -2.208e-5, 7.546e-6
-0.500, -2.979e-5, -2.240e-5, 7.387e-6
