Sept. 28, 2023   14:40:31
Square Wave Voltammetry
File: c:\users\biose\documents\heatherl\epbp\09282023\frequencyscan\90_0_2.txt
Data Source:  Experiment
Instrument Model:  CHI1040C
Header: 
Note: 

Init E (V) = 0
Final E (V) = -0.7
Incr E (V) = 0.004
Amplitude (V) = 0.05
Frequency (Hz) = 90
Quiet Time (sec) = 2
Sensitivity (A/V) = 1e-5

E2 Scan On
Sens 2 = 1e-005

Results:

Channel 1:
Difference:
Ep = -0.308V
ip = 3.662e-7A
Ap = 4.219e-8VA

Forward:

Reverse:

Channel 2:
Difference:

Forward:

Reverse:

Potential/V, i1d/A, i1f/A, i1r/A, i2d/A, i2f/A, i2r/A

-0.004, 6.546e-6, 1.326e-6, -5.220e-6, 7.368e-6, 1.494e-6, -5.874e-6
-0.008, 8.897e-6, 4.114e-6, -4.783e-6, 1.011e-5, 4.717e-6, -5.392e-6
-0.012, 8.747e-6, 4.168e-6, -4.578e-6, 9.968e-6, 4.788e-6, -5.179e-6
-0.016, 8.548e-6, 4.124e-6, -4.424e-6, 9.750e-6, 4.740e-6, -5.010e-6
-0.020, 8.363e-6, 4.083e-6, -4.280e-6, 9.557e-6, 4.696e-6, -4.861e-6
-0.024, 8.172e-6, 4.026e-6, -4.146e-6, 9.367e-6, 4.642e-6, -4.725e-6
-0.028, 8.001e-6, 3.969e-6, -4.032e-6, 9.179e-6, 4.582e-6, -4.597e-6
-0.032, 7.844e-6, 3.921e-6, -3.923e-6, 9.012e-6, 4.527e-6, -4.485e-6
-0.036, 7.684e-6, 3.871e-6, -3.812e-6, 8.851e-6, 4.479e-6, -4.372e-6
-0.040, 7.540e-6, 3.819e-6, -3.721e-6, 8.696e-6, 4.425e-6, -4.271e-6
-0.044, 7.413e-6, 3.781e-6, -3.632e-6, 8.558e-6, 4.381e-6, -4.178e-6
-0.048, 7.273e-6, 3.731e-6, -3.542e-6, 8.419e-6, 4.333e-6, -4.086e-6
-0.052, 7.155e-6, 3.692e-6, -3.463e-6, 8.287e-6, 4.289e-6, -3.998e-6
-0.056, 7.052e-6, 3.657e-6, -3.395e-6, 8.176e-6, 4.249e-6, -3.927e-6
-0.060, 6.938e-6, 3.622e-6, -3.316e-6, 8.062e-6, 4.216e-6, -3.846e-6
-0.064, 6.843e-6, 3.585e-6, -3.257e-6, 7.956e-6, 4.176e-6, -3.780e-6
-0.068, 6.758e-6, 3.561e-6, -3.197e-6, 7.861e-6, 4.147e-6, -3.715e-6
-0.072, 6.666e-6, 3.530e-6, -3.136e-6, 7.770e-6, 4.116e-6, -3.654e-6
-0.076, 6.584e-6, 3.500e-6, -3.084e-6, 7.674e-6, 4.082e-6, -3.592e-6
-0.080, 6.522e-6, 3.485e-6, -3.037e-6, 7.603e-6, 4.061e-6, -3.542e-6
-0.084, 6.440e-6, 3.458e-6, -2.982e-6, 7.521e-6, 4.035e-6, -3.486e-6
-0.088, 6.378e-6, 3.434e-6, -2.944e-6, 7.447e-6, 4.007e-6, -3.440e-6
-0.092, 6.326e-6, 3.421e-6, -2.904e-6, 7.386e-6, 3.989e-6, -3.397e-6
-0.096, 6.261e-6, 3.401e-6, -2.860e-6, 7.322e-6, 3.970e-6, -3.352e-6
-0.100, 6.210e-6, 3.382e-6, -2.828e-6, 7.257e-6, 3.946e-6, -3.311e-6
-0.104, 6.169e-6, 3.375e-6, -2.795e-6, 7.208e-6, 3.932e-6, -3.276e-6
-0.108, 6.117e-6, 3.359e-6, -2.758e-6, 7.159e-6, 3.920e-6, -3.239e-6
-0.112, 6.076e-6, 3.347e-6, -2.729e-6, 7.103e-6, 3.902e-6, -3.201e-6
-0.116, 6.051e-6, 3.344e-6, -2.706e-6, 7.067e-6, 3.892e-6, -3.175e-6
-0.120, 6.009e-6, 3.333e-6, -2.676e-6, 7.026e-6, 3.881e-6, -3.145e-6
-0.124, 5.975e-6, 3.323e-6, -2.652e-6, 6.975e-6, 3.863e-6, -3.112e-6
-0.128, 5.962e-6, 3.326e-6, -2.636e-6, 6.950e-6, 3.859e-6, -3.091e-6
-0.132, 5.929e-6, 3.322e-6, -2.608e-6, 6.918e-6, 3.855e-6, -3.064e-6
-0.136, 5.907e-6, 3.315e-6, -2.591e-6, 6.878e-6, 3.842e-6, -3.037e-6
-0.140, 5.897e-6, 3.321e-6, -2.576e-6, 6.860e-6, 3.841e-6, -3.019e-6
-0.144, 5.872e-6, 3.319e-6, -2.554e-6, 6.831e-6, 3.835e-6, -2.996e-6
-0.148, 5.861e-6, 3.319e-6, -2.542e-6, 6.803e-6, 3.829e-6, -2.974e-6
-0.152, 5.859e-6, 3.326e-6, -2.533e-6, 6.786e-6, 3.827e-6, -2.960e-6
-0.156, 5.844e-6, 3.332e-6, -2.512e-6, 6.769e-6, 3.830e-6, -2.939e-6
-0.160, 5.838e-6, 3.332e-6, -2.505e-6, 6.746e-6, 3.823e-6, -2.922e-6
-0.164, 5.840e-6, 3.344e-6, -2.496e-6, 6.735e-6, 3.826e-6, -2.909e-6
-0.168, 5.832e-6, 3.349e-6, -2.484e-6, 6.721e-6, 3.827e-6, -2.894e-6
-0.172, 5.834e-6, 3.357e-6, -2.477e-6, 6.702e-6, 3.825e-6, -2.878e-6
-0.176, 5.849e-6, 3.373e-6, -2.475e-6, 6.699e-6, 3.828e-6, -2.871e-6
-0.180, 5.843e-6, 3.384e-6, -2.460e-6, 6.684e-6, 3.834e-6, -2.851e-6
-0.184, 5.855e-6, 3.395e-6, -2.460e-6, 6.678e-6, 3.837e-6, -2.841e-6
-0.188, 5.872e-6, 3.415e-6, -2.457e-6, 6.678e-6, 3.844e-6, -2.834e-6
-0.192, 5.872e-6, 3.425e-6, -2.447e-6, 6.667e-6, 3.848e-6, -2.819e-6
-0.196, 5.887e-6, 3.441e-6, -2.446e-6, 6.661e-6, 3.853e-6, -2.809e-6
-0.200, 5.914e-6, 3.465e-6, -2.449e-6, 6.670e-6, 3.865e-6, -2.805e-6
-0.204, 5.919e-6, 3.483e-6, -2.436e-6, 6.665e-6, 3.874e-6, -2.791e-6
-0.208, 5.940e-6, 3.502e-6, -2.439e-6, 6.663e-6, 3.881e-6, -2.782e-6
-0.212, 5.971e-6, 3.530e-6, -2.441e-6, 6.671e-6, 3.893e-6, -2.778e-6
-0.216, 5.983e-6, 3.549e-6, -2.434e-6, 6.672e-6, 3.904e-6, -2.767e-6
-0.220, 6.007e-6, 3.571e-6, -2.436e-6, 6.673e-6, 3.914e-6, -2.759e-6
-0.224, 6.042e-6, 3.601e-6, -2.441e-6, 6.685e-6, 3.929e-6, -2.756e-6
-0.228, 6.056e-6, 3.625e-6, -2.431e-6, 6.687e-6, 3.942e-6, -2.744e-6
-0.232, 6.085e-6, 3.648e-6, -2.437e-6, 6.690e-6, 3.952e-6, -2.738e-6
-0.236, 6.122e-6, 3.683e-6, -2.439e-6, 6.702e-6, 3.970e-6, -2.732e-6
-0.240, 6.139e-6, 3.706e-6, -2.433e-6, 6.707e-6, 3.984e-6, -2.723e-6
-0.244, 6.170e-6, 3.734e-6, -2.436e-6, 6.715e-6, 4.000e-6, -2.715e-6
-0.248, 6.209e-6, 3.770e-6, -2.439e-6, 6.731e-6, 4.018e-6, -2.713e-6
-0.252, 6.227e-6, 3.795e-6, -2.431e-6, 6.737e-6, 4.036e-6, -2.700e-6
-0.256, 6.253e-6, 3.819e-6, -2.434e-6, 6.739e-6, 4.047e-6, -2.692e-6
-0.260, 6.293e-6, 3.857e-6, -2.436e-6, 6.758e-6, 4.070e-6, -2.687e-6
-0.264, 6.307e-6, 3.882e-6, -2.425e-6, 6.763e-6, 4.089e-6, -2.674e-6
-0.268, 6.337e-6, 3.908e-6, -2.428e-6, 6.771e-6, 4.104e-6, -2.667e-6
-0.272, 6.364e-6, 3.940e-6, -2.425e-6, 6.779e-6, 4.124e-6, -2.655e-6
-0.276, 6.376e-6, 3.965e-6, -2.410e-6, 6.785e-6, 4.144e-6, -2.641e-6
-0.280, 6.398e-6, 3.989e-6, -2.408e-6, 6.793e-6, 4.161e-6, -2.631e-6
-0.284, 6.423e-6, 4.022e-6, -2.400e-6, 6.802e-6, 4.185e-6, -2.617e-6
-0.288, 6.428e-6, 4.044e-6, -2.384e-6, 6.808e-6, 4.205e-6, -2.603e-6
-0.292, 6.442e-6, 4.067e-6, -2.375e-6, 6.808e-6, 4.222e-6, -2.586e-6
-0.296, 6.461e-6, 4.096e-6, -2.364e-6, 6.821e-6, 4.246e-6, -2.575e-6
-0.300, 6.456e-6, 4.116e-6, -2.340e-6, 6.821e-6, 4.268e-6, -2.553e-6
-0.304, 6.467e-6, 4.140e-6, -2.327e-6, 6.826e-6, 4.290e-6, -2.536e-6
-0.308, 6.481e-6, 4.170e-6, -2.311e-6, 6.837e-6, 4.315e-6, -2.522e-6
-0.312, 6.470e-6, 4.187e-6, -2.282e-6, 6.834e-6, 4.337e-6, -2.498e-6
-0.316, 6.468e-6, 4.208e-6, -2.260e-6, 6.834e-6, 4.359e-6, -2.474e-6
-0.320, 6.479e-6, 4.238e-6, -2.241e-6, 6.847e-6, 4.387e-6, -2.460e-6
-0.324, 6.458e-6, 4.257e-6, -2.201e-6, 6.842e-6, 4.413e-6, -2.429e-6
-0.328, 6.455e-6, 4.275e-6, -2.180e-6, 6.841e-6, 4.434e-6, -2.407e-6
-0.332, 6.460e-6, 4.310e-6, -2.150e-6, 6.853e-6, 4.467e-6, -2.386e-6
-0.336, 6.440e-6, 4.329e-6, -2.111e-6, 6.852e-6, 4.496e-6, -2.356e-6
-0.340, 6.435e-6, 4.353e-6, -2.083e-6, 6.850e-6, 4.522e-6, -2.328e-6
-0.344, 6.438e-6, 4.385e-6, -2.053e-6, 6.862e-6, 4.555e-6, -2.308e-6
-0.348, 6.415e-6, 4.406e-6, -2.009e-6, 6.863e-6, 4.585e-6, -2.277e-6
-0.352, 6.407e-6, 4.429e-6, -1.978e-6, 6.859e-6, 4.612e-6, -2.246e-6
-0.356, 6.411e-6, 4.464e-6, -1.946e-6, 6.873e-6, 4.648e-6, -2.224e-6
-0.360, 6.389e-6, 4.488e-6, -1.902e-6, 6.871e-6, 4.680e-6, -2.191e-6
-0.364, 6.385e-6, 4.517e-6, -1.868e-6, 6.871e-6, 4.711e-6, -2.160e-6
-0.368, 6.385e-6, 4.550e-6, -1.834e-6, 6.883e-6, 4.748e-6, -2.135e-6
-0.372, 6.366e-6, 4.580e-6, -1.787e-6, 6.885e-6, 4.786e-6, -2.099e-6
-0.376, 6.359e-6, 4.606e-6, -1.753e-6, 6.884e-6, 4.816e-6, -2.068e-6
-0.380, 6.361e-6, 4.644e-6, -1.718e-6, 6.895e-6, 4.854e-6, -2.041e-6
-0.384, 6.345e-6, 4.674e-6, -1.671e-6, 6.899e-6, 4.893e-6, -2.006e-6
-0.388, 6.346e-6, 4.708e-6, -1.638e-6, 6.902e-6, 4.929e-6, -1.972e-6
-0.392, 6.352e-6, 4.747e-6, -1.605e-6, 6.918e-6, 4.970e-6, -1.948e-6
-0.396, 6.332e-6, 4.776e-6, -1.556e-6, 6.915e-6, 5.006e-6, -1.909e-6
-0.400, 6.331e-6, 4.808e-6, -1.522e-6, 6.917e-6, 5.041e-6, -1.876e-6
-0.404, 6.340e-6, 4.853e-6, -1.487e-6, 6.932e-6, 5.085e-6, -1.847e-6
-0.408, 6.323e-6, 4.882e-6, -1.441e-6, 6.933e-6, 5.122e-6, -1.811e-6
-0.412, 6.322e-6, 4.916e-6, -1.406e-6, 6.935e-6, 5.159e-6, -1.776e-6
-0.416, 6.333e-6, 4.961e-6, -1.372e-6, 6.950e-6, 5.203e-6, -1.747e-6
-0.420, 6.320e-6, 4.994e-6, -1.326e-6, 6.953e-6, 5.244e-6, -1.710e-6
-0.424, 6.323e-6, 5.030e-6, -1.293e-6, 6.957e-6, 5.281e-6, -1.676e-6
-0.428, 6.332e-6, 5.074e-6, -1.258e-6, 6.971e-6, 5.325e-6, -1.647e-6
-0.432, 6.320e-6, 5.106e-6, -1.214e-6, 6.975e-6, 5.365e-6, -1.610e-6
-0.436, 6.318e-6, 5.140e-6, -1.178e-6, 6.974e-6, 5.402e-6, -1.572e-6
-0.440, 6.334e-6, 5.187e-6, -1.147e-6, 6.992e-6, 5.445e-6, -1.547e-6
-0.444, 6.326e-6, 5.224e-6, -1.103e-6, 6.999e-6, 5.490e-6, -1.508e-6
-0.448, 6.331e-6, 5.259e-6, -1.072e-6, 7.004e-6, 5.527e-6, -1.477e-6
-0.452, 6.343e-6, 5.306e-6, -1.037e-6, 7.018e-6, 5.572e-6, -1.446e-6
-0.456, 6.336e-6, 5.340e-6, -9.964e-7, 7.027e-6, 5.616e-6, -1.411e-6
-0.460, 6.338e-6, 5.375e-6, -9.630e-7, 7.028e-6, 5.651e-6, -1.377e-6
-0.464, 6.354e-6, 5.421e-6, -9.335e-7, 7.047e-6, 5.698e-6, -1.349e-6
-0.468, 6.343e-6, 5.453e-6, -8.901e-7, 7.050e-6, 5.737e-6, -1.313e-6
-0.472, 6.352e-6, 5.491e-6, -8.608e-7, 7.056e-6, 5.776e-6, -1.280e-6
-0.476, 6.369e-6, 5.539e-6, -8.295e-7, 7.075e-6, 5.822e-6, -1.252e-6
-0.480, 6.365e-6, 5.574e-6, -7.909e-7, 7.084e-6, 5.866e-6, -1.219e-6
-0.484, 6.373e-6, 5.610e-6, -7.633e-7, 7.095e-6, 5.904e-6, -1.191e-6
-0.488, 6.393e-6, 5.658e-6, -7.355e-7, 7.114e-6, 5.949e-6, -1.164e-6
-0.492, 6.389e-6, 5.692e-6, -6.965e-7, 7.123e-6, 5.992e-6, -1.130e-6
-0.496, 6.397e-6, 5.728e-6, -6.694e-7, 7.130e-6, 6.029e-6, -1.101e-6
-0.500, 6.416e-6, 5.773e-6, -6.424e-7, 7.150e-6, 6.074e-6, -1.076e-6
-0.504, 6.415e-6, 5.810e-6, -6.047e-7, 7.164e-6, 6.118e-6, -1.045e-6
-0.508, 6.428e-6, 5.847e-6, -5.807e-7, 7.176e-6, 6.157e-6, -1.018e-6
-0.512, 6.449e-6, 5.893e-6, -5.558e-7, 7.198e-6, 6.203e-6, -9.950e-7
-0.516, 6.449e-6, 5.929e-6, -5.202e-7, 7.211e-6, 6.246e-6, -9.641e-7
-0.520, 6.467e-6, 5.967e-6, -4.995e-7, 7.224e-6, 6.284e-6, -9.396e-7
-0.524, 6.490e-6, 6.015e-6, -4.749e-7, 7.249e-6, 6.331e-6, -9.182e-7
-0.528, 6.495e-6, 6.052e-6, -4.432e-7, 7.268e-6, 6.376e-6, -8.913e-7
-0.532, 6.506e-6, 6.087e-6, -4.195e-7, 7.279e-6, 6.414e-6, -8.651e-7
-0.536, 6.536e-6, 6.136e-6, -3.998e-7, 7.312e-6, 6.463e-6, -8.484e-7
-0.540, 6.542e-6, 6.174e-6, -3.680e-7, 7.328e-6, 6.507e-6, -8.207e-7
-0.544, 6.563e-6, 6.212e-6, -3.513e-7, 7.347e-6, 6.546e-6, -8.016e-7
-0.548, 6.592e-6, 6.262e-6, -3.307e-7, 7.380e-6, 6.596e-6, -7.842e-7
-0.552, 6.604e-6, 6.301e-6, -3.038e-7, 7.404e-6, 6.643e-6, -7.615e-7
-0.556, 6.625e-6, 6.339e-6, -2.863e-7, 7.424e-6, 6.682e-6, -7.423e-7
-0.560, 6.660e-6, 6.389e-6, -2.710e-7, 7.463e-6, 6.734e-6, -7.291e-7
-0.564, 6.668e-6, 6.427e-6, -2.408e-7, 7.483e-6, 6.779e-6, -7.042e-7
-0.568, 6.695e-6, 6.468e-6, -2.269e-7, 7.508e-6, 6.822e-6, -6.865e-7
-0.572, 6.736e-6, 6.523e-6, -2.132e-7, 7.552e-6, 6.876e-6, -6.762e-7
-0.576, 6.750e-6, 6.559e-6, -1.903e-7, 7.579e-6, 6.921e-6, -6.579e-7
-0.580, 6.778e-6, 6.602e-6, -1.762e-7, 7.606e-6, 6.965e-6, -6.406e-7
-0.584, 6.821e-6, 6.657e-6, -1.642e-7, 7.651e-6, 7.019e-6, -6.318e-7
-0.588, 6.838e-6, 6.698e-6, -1.399e-7, 7.682e-6, 7.070e-6, -6.122e-7
-0.592, 6.874e-6, 6.740e-6, -1.334e-7, 7.719e-6, 7.116e-6, -6.029e-7
-0.596, 6.919e-6, 6.798e-6, -1.211e-7, 7.764e-6, 7.172e-6, -5.927e-7
-0.600, 6.941e-6, 6.841e-6, -9.962e-8, 7.802e-6, 7.224e-6, -5.784e-7
-0.604, 6.983e-6, 6.889e-6, -9.419e-8, 7.843e-6, 7.274e-6, -5.685e-7
-0.608, 7.034e-6, 6.948e-6, -8.651e-8, 7.896e-6, 7.332e-6, -5.635e-7
-0.612, 7.058e-6, 6.993e-6, -6.502e-8, 7.935e-6, 7.387e-6, -5.478e-7
-0.616, 7.104e-6, 7.043e-6, -6.103e-8, 7.980e-6, 7.439e-6, -5.405e-7
-0.620, 7.157e-6, 7.102e-6, -5.551e-8, 8.037e-6, 7.500e-6, -5.370e-7
-0.624, 7.191e-6, 7.153e-6, -3.796e-8, 8.084e-6, 7.558e-6, -5.264e-7
-0.628, 7.242e-6, 7.205e-6, -3.624e-8, 8.137e-6, 7.616e-6, -5.211e-7
-0.632, 7.302e-6, 7.270e-6, -3.195e-8, 8.201e-6, 7.681e-6, -5.208e-7
-0.636, 7.342e-6, 7.324e-6, -1.754e-8, 8.256e-6, 7.745e-6, -5.103e-7
-0.640, 7.393e-6, 7.377e-6, -1.544e-8, 8.309e-6, 7.803e-6, -5.066e-7
-0.644, 7.460e-6, 7.448e-6, -1.235e-8, 8.378e-6, 7.874e-6, -5.044e-7
-0.648, 7.505e-6, 7.503e-6, -1.770e-9, 8.441e-6, 7.940e-6, -5.006e-7
-0.652, 7.567e-6, 7.565e-6, -2.327e-9, 8.504e-6, 8.007e-6, -4.972e-7
-0.656, 7.643e-6, 7.638e-6, -5.400e-9, 8.587e-6, 8.083e-6, -5.035e-7
-0.660, 7.689e-6, 7.697e-6, 7.561e-9, 8.647e-6, 8.152e-6, -4.951e-7
-0.664, 7.757e-6, 7.761e-6, 4.421e-9, 8.719e-6, 8.222e-6, -4.967e-7
-0.668, 7.839e-6, 7.841e-6, 2.149e-9, 8.807e-6, 8.305e-6, -5.014e-7
-0.672, 7.892e-6, 7.900e-6, 8.206e-9, 8.879e-6, 8.377e-6, -5.017e-7
-0.676, 7.970e-6, 7.976e-6, 5.400e-9, 8.959e-6, 8.458e-6, -5.005e-7
-0.680, 8.059e-6, 8.059e-6, -2.116e-10, 9.052e-6, 8.543e-6, -5.085e-7
-0.684, 8.120e-6, 8.129e-6, 9.342e-9, 9.133e-6, 8.628e-6, -5.046e-7
-0.688, 8.207e-6, 8.205e-6, -2.550e-9, 9.222e-6, 8.709e-6, -5.130e-7
-0.692, 8.304e-6, 8.296e-6, -8.162e-9, 9.327e-6, 8.807e-6, -5.208e-7
-0.696, 8.380e-6, 8.375e-6, -4.911e-9, 9.422e-6, 8.900e-6, -5.226e-7
-0.700, 8.472e-6, 8.459e-6, -1.353e-8, 9.519e-6, 8.991e-6, -5.281e-7
