Sept. 28, 2023   14:31:44
Square Wave Voltammetry
File: c:\users\biose\documents\heatherl\epbp\09282023\frequencyscan\50_0_2.txt
Data Source:  Experiment
Instrument Model:  CHI1040C
Header: 
Note: 

Init E (V) = 0
Final E (V) = -0.7
Incr E (V) = 0.004
Amplitude (V) = 0.05
Frequency (Hz) = 50
Quiet Time (sec) = 2
Sensitivity (A/V) = 1e-5

E2 Scan On
Sens 2 = 1e-005

Results:

Channel 1:
Difference:
Ep = -0.448V
ip = 2.833e-9A
Ap = 2.152e-8VA

Forward:

Reverse:

Channel 2:
Difference:

Forward:

Reverse:

Potential/V, i1d/A, i1f/A, i1r/A, i2d/A, i2f/A, i2r/A

-0.004, 3.086e-6, 7.375e-7, -2.349e-6, 3.453e-6, 8.241e-7, -2.629e-6
-0.008, 3.865e-6, 1.746e-6, -2.118e-6, 4.352e-6, 1.979e-6, -2.373e-6
-0.012, 3.805e-6, 1.791e-6, -2.014e-6, 4.288e-6, 2.028e-6, -2.259e-6
-0.016, 3.707e-6, 1.779e-6, -1.928e-6, 4.187e-6, 2.018e-6, -2.169e-6
-0.020, 3.620e-6, 1.766e-6, -1.854e-6, 4.100e-6, 2.008e-6, -2.092e-6
-0.024, 3.542e-6, 1.747e-6, -1.795e-6, 4.019e-6, 1.989e-6, -2.029e-6
-0.028, 3.468e-6, 1.731e-6, -1.737e-6, 3.935e-6, 1.972e-6, -1.964e-6
-0.032, 3.398e-6, 1.714e-6, -1.684e-6, 3.856e-6, 1.951e-6, -1.905e-6
-0.036, 3.321e-6, 1.689e-6, -1.632e-6, 3.775e-6, 1.925e-6, -1.850e-6
-0.040, 3.254e-6, 1.671e-6, -1.583e-6, 3.709e-6, 1.909e-6, -1.800e-6
-0.044, 3.196e-6, 1.652e-6, -1.544e-6, 3.648e-6, 1.890e-6, -1.758e-6
-0.048, 3.143e-6, 1.639e-6, -1.504e-6, 3.587e-6, 1.874e-6, -1.712e-6
-0.052, 3.092e-6, 1.624e-6, -1.467e-6, 3.527e-6, 1.857e-6, -1.670e-6
-0.056, 3.033e-6, 1.604e-6, -1.429e-6, 3.465e-6, 1.835e-6, -1.629e-6
-0.060, 2.985e-6, 1.591e-6, -1.394e-6, 3.418e-6, 1.824e-6, -1.594e-6
-0.064, 2.944e-6, 1.575e-6, -1.369e-6, 3.375e-6, 1.809e-6, -1.566e-6
-0.068, 2.907e-6, 1.567e-6, -1.340e-6, 3.329e-6, 1.797e-6, -1.532e-6
-0.072, 2.873e-6, 1.559e-6, -1.314e-6, 3.286e-6, 1.785e-6, -1.501e-6
-0.076, 2.827e-6, 1.542e-6, -1.285e-6, 3.238e-6, 1.767e-6, -1.471e-6
-0.080, 2.790e-6, 1.532e-6, -1.258e-6, 3.203e-6, 1.759e-6, -1.444e-6
-0.084, 2.764e-6, 1.521e-6, -1.243e-6, 3.175e-6, 1.748e-6, -1.427e-6
-0.088, 2.738e-6, 1.518e-6, -1.221e-6, 3.140e-6, 1.742e-6, -1.398e-6
-0.092, 2.713e-6, 1.512e-6, -1.202e-6, 3.107e-6, 1.731e-6, -1.376e-6
-0.096, 2.678e-6, 1.498e-6, -1.179e-6, 3.069e-6, 1.717e-6, -1.352e-6
-0.100, 2.653e-6, 1.493e-6, -1.160e-6, 3.044e-6, 1.713e-6, -1.332e-6
-0.104, 2.636e-6, 1.487e-6, -1.149e-6, 3.026e-6, 1.707e-6, -1.319e-6
-0.108, 2.620e-6, 1.486e-6, -1.134e-6, 3.002e-6, 1.702e-6, -1.299e-6
-0.112, 2.604e-6, 1.484e-6, -1.120e-6, 2.977e-6, 1.696e-6, -1.281e-6
-0.116, 2.578e-6, 1.476e-6, -1.103e-6, 2.948e-6, 1.685e-6, -1.263e-6
-0.120, 2.560e-6, 1.473e-6, -1.087e-6, 2.931e-6, 1.683e-6, -1.247e-6
-0.124, 2.552e-6, 1.470e-6, -1.082e-6, 2.920e-6, 1.680e-6, -1.240e-6
-0.128, 2.542e-6, 1.472e-6, -1.069e-6, 2.900e-6, 1.678e-6, -1.222e-6
-0.132, 2.533e-6, 1.474e-6, -1.059e-6, 2.882e-6, 1.674e-6, -1.208e-6
-0.136, 2.511e-6, 1.466e-6, -1.045e-6, 2.857e-6, 1.664e-6, -1.193e-6
-0.140, 2.504e-6, 1.468e-6, -1.035e-6, 2.849e-6, 1.667e-6, -1.183e-6
-0.144, 2.500e-6, 1.469e-6, -1.032e-6, 2.842e-6, 1.666e-6, -1.177e-6
-0.148, 2.497e-6, 1.475e-6, -1.022e-6, 2.828e-6, 1.667e-6, -1.161e-6
-0.152, 2.494e-6, 1.480e-6, -1.015e-6, 2.817e-6, 1.667e-6, -1.150e-6
-0.156, 2.482e-6, 1.477e-6, -1.005e-6, 2.799e-6, 1.660e-6, -1.139e-6
-0.160, 2.478e-6, 1.482e-6, -9.966e-7, 2.795e-6, 1.665e-6, -1.130e-6
-0.164, 2.481e-6, 1.486e-6, -9.953e-7, 2.792e-6, 1.666e-6, -1.126e-6
-0.168, 2.485e-6, 1.496e-6, -9.895e-7, 2.784e-6, 1.670e-6, -1.114e-6
-0.172, 2.488e-6, 1.503e-6, -9.845e-7, 2.776e-6, 1.671e-6, -1.105e-6
-0.176, 2.480e-6, 1.505e-6, -9.756e-7, 2.764e-6, 1.669e-6, -1.095e-6
-0.180, 2.481e-6, 1.513e-6, -9.685e-7, 2.762e-6, 1.674e-6, -1.087e-6
-0.184, 2.490e-6, 1.520e-6, -9.693e-7, 2.764e-6, 1.679e-6, -1.085e-6
-0.188, 2.498e-6, 1.534e-6, -9.640e-7, 2.760e-6, 1.686e-6, -1.074e-6
-0.192, 2.507e-6, 1.547e-6, -9.606e-7, 2.757e-6, 1.691e-6, -1.066e-6
-0.196, 2.504e-6, 1.552e-6, -9.520e-7, 2.747e-6, 1.691e-6, -1.056e-6
-0.200, 2.511e-6, 1.565e-6, -9.467e-7, 2.751e-6, 1.701e-6, -1.050e-6
-0.204, 2.527e-6, 1.577e-6, -9.498e-7, 2.758e-6, 1.708e-6, -1.050e-6
-0.208, 2.539e-6, 1.595e-6, -9.438e-7, 2.756e-6, 1.718e-6, -1.038e-6
-0.212, 2.553e-6, 1.612e-6, -9.412e-7, 2.757e-6, 1.727e-6, -1.030e-6
-0.216, 2.555e-6, 1.621e-6, -9.332e-7, 2.750e-6, 1.729e-6, -1.021e-6
-0.220, 2.568e-6, 1.639e-6, -9.289e-7, 2.760e-6, 1.744e-6, -1.017e-6
-0.224, 2.586e-6, 1.656e-6, -9.299e-7, 2.769e-6, 1.755e-6, -1.014e-6
-0.228, 2.605e-6, 1.679e-6, -9.260e-7, 2.772e-6, 1.768e-6, -1.004e-6
-0.232, 2.621e-6, 1.698e-6, -9.226e-7, 2.774e-6, 1.778e-6, -9.960e-7
-0.236, 2.626e-6, 1.712e-6, -9.141e-7, 2.771e-6, 1.785e-6, -9.864e-7
-0.240, 2.640e-6, 1.732e-6, -9.084e-7, 2.780e-6, 1.801e-6, -9.796e-7
-0.244, 2.661e-6, 1.752e-6, -9.091e-7, 2.793e-6, 1.815e-6, -9.775e-7
-0.248, 2.682e-6, 1.779e-6, -9.029e-7, 2.798e-6, 1.833e-6, -9.652e-7
-0.252, 2.699e-6, 1.801e-6, -8.978e-7, 2.800e-6, 1.845e-6, -9.555e-7
-0.256, 2.706e-6, 1.818e-6, -8.879e-7, 2.801e-6, 1.856e-6, -9.451e-7
-0.260, 2.719e-6, 1.839e-6, -8.798e-7, 2.811e-6, 1.875e-6, -9.369e-7
-0.264, 2.739e-6, 1.860e-6, -8.783e-7, 2.825e-6, 1.892e-6, -9.330e-7
-0.268, 2.759e-6, 1.888e-6, -8.711e-7, 2.832e-6, 1.912e-6, -9.204e-7
-0.272, 2.773e-6, 1.911e-6, -8.621e-7, 2.836e-6, 1.927e-6, -9.086e-7
-0.276, 2.774e-6, 1.926e-6, -8.482e-7, 2.833e-6, 1.939e-6, -8.942e-7
-0.280, 2.785e-6, 1.949e-6, -8.364e-7, 2.844e-6, 1.961e-6, -8.833e-7
-0.284, 2.801e-6, 1.969e-6, -8.318e-7, 2.858e-6, 1.980e-6, -8.779e-7
-0.288, 2.814e-6, 1.997e-6, -8.171e-7, 2.862e-6, 2.003e-6, -8.593e-7
-0.292, 2.824e-6, 2.020e-6, -8.043e-7, 2.867e-6, 2.022e-6, -8.451e-7
-0.296, 2.823e-6, 2.037e-6, -7.857e-7, 2.867e-6, 2.038e-6, -8.286e-7
-0.300, 2.826e-6, 2.058e-6, -7.680e-7, 2.875e-6, 2.062e-6, -8.135e-7
-0.304, 2.836e-6, 2.080e-6, -7.563e-7, 2.886e-6, 2.084e-6, -8.025e-7
-0.308, 2.845e-6, 2.107e-6, -7.376e-7, 2.892e-6, 2.110e-6, -7.823e-7
-0.312, 2.851e-6, 2.131e-6, -7.204e-7, 2.898e-6, 2.132e-6, -7.664e-7
-0.316, 2.842e-6, 2.147e-6, -6.949e-7, 2.896e-6, 2.150e-6, -7.460e-7
-0.320, 2.843e-6, 2.171e-6, -6.722e-7, 2.906e-6, 2.178e-6, -7.281e-7
-0.324, 2.850e-6, 2.195e-6, -6.549e-7, 2.918e-6, 2.204e-6, -7.141e-7
-0.328, 2.854e-6, 2.222e-6, -6.313e-7, 2.923e-6, 2.232e-6, -6.914e-7
-0.332, 2.856e-6, 2.249e-6, -6.075e-7, 2.929e-6, 2.258e-6, -6.705e-7
-0.336, 2.846e-6, 2.268e-6, -5.780e-7, 2.926e-6, 2.279e-6, -6.474e-7
-0.340, 2.845e-6, 2.294e-6, -5.510e-7, 2.938e-6, 2.311e-6, -6.274e-7
-0.344, 2.849e-6, 2.319e-6, -5.306e-7, 2.951e-6, 2.340e-6, -6.111e-7
-0.348, 2.852e-6, 2.349e-6, -5.031e-7, 2.956e-6, 2.370e-6, -5.857e-7
-0.352, 2.855e-6, 2.378e-6, -4.770e-7, 2.963e-6, 2.400e-6, -5.630e-7
-0.356, 2.844e-6, 2.400e-6, -4.444e-7, 2.960e-6, 2.423e-6, -5.362e-7
-0.360, 2.843e-6, 2.428e-6, -4.156e-7, 2.971e-6, 2.457e-6, -5.142e-7
-0.364, 2.849e-6, 2.456e-6, -3.934e-7, 2.985e-6, 2.489e-6, -4.961e-7
-0.368, 2.852e-6, 2.489e-6, -3.634e-7, 2.990e-6, 2.522e-6, -4.678e-7
-0.372, 2.855e-6, 2.520e-6, -3.353e-7, 2.995e-6, 2.552e-6, -4.429e-7
-0.376, 2.846e-6, 2.543e-6, -3.028e-7, 2.995e-6, 2.579e-6, -4.166e-7
-0.380, 2.845e-6, 2.573e-6, -2.726e-7, 3.005e-6, 2.614e-6, -3.914e-7
-0.384, 2.850e-6, 2.601e-6, -2.484e-7, 3.016e-6, 2.645e-6, -3.713e-7
-0.388, 2.857e-6, 2.638e-6, -2.184e-7, 3.023e-6, 2.682e-6, -3.408e-7
-0.392, 2.858e-6, 2.669e-6, -1.889e-7, 3.026e-6, 2.712e-6, -3.137e-7
-0.396, 2.850e-6, 2.695e-6, -1.549e-7, 3.025e-6, 2.740e-6, -2.847e-7
-0.400, 2.851e-6, 2.727e-6, -1.247e-7, 3.035e-6, 2.776e-6, -2.595e-7
-0.404, 2.856e-6, 2.756e-6, -1.002e-7, 3.046e-6, 2.809e-6, -2.367e-7
-0.408, 2.865e-6, 2.794e-6, -7.111e-8, 3.053e-6, 2.846e-6, -2.074e-7
-0.412, 2.867e-6, 2.825e-6, -4.176e-8, 3.056e-6, 2.877e-6, -1.789e-7
-0.416, 2.858e-6, 2.852e-6, -6.146e-9, 3.052e-6, 2.905e-6, -1.473e-7
-0.420, 2.861e-6, 2.885e-6, 2.364e-8, 3.064e-6, 2.943e-6, -1.216e-7
-0.424, 2.867e-6, 2.914e-6, 4.708e-8, 3.074e-6, 2.974e-6, -9.962e-8
-0.428, 2.873e-6, 2.951e-6, 7.740e-8, 3.078e-6, 3.011e-6, -6.754e-8
-0.432, 2.876e-6, 2.982e-6, 1.061e-7, 3.080e-6, 3.041e-6, -3.976e-8
-0.436, 2.868e-6, 3.008e-6, 1.406e-7, 3.076e-6, 3.068e-6, -7.881e-9
-0.440, 2.870e-6, 3.040e-6, 1.698e-7, 3.086e-6, 3.104e-6, 1.768e-8
-0.444, 2.876e-6, 3.071e-6, 1.941e-7, 3.096e-6, 3.137e-6, 4.077e-8
-0.448, 2.884e-6, 3.107e-6, 2.235e-7, 3.101e-6, 3.173e-6, 7.272e-8
-0.452, 2.887e-6, 3.139e-6, 2.519e-7, 3.102e-6, 3.204e-6, 1.014e-7
-0.456, 2.877e-6, 3.163e-6, 2.861e-7, 3.097e-6, 3.230e-6, 1.329e-7
-0.460, 2.879e-6, 3.195e-6, 3.155e-7, 3.106e-6, 3.265e-6, 1.587e-7
-0.464, 2.888e-6, 3.224e-6, 3.368e-7, 3.116e-6, 3.297e-6, 1.803e-7
-0.468, 2.895e-6, 3.261e-6, 3.657e-7, 3.121e-6, 3.333e-6, 2.119e-7
-0.472, 2.897e-6, 3.291e-6, 3.935e-7, 3.122e-6, 3.361e-6, 2.398e-7
-0.476, 2.888e-6, 3.316e-6, 4.277e-7, 3.117e-6, 3.388e-6, 2.712e-7
-0.480, 2.892e-6, 3.347e-6, 4.547e-7, 3.127e-6, 3.423e-6, 2.964e-7
-0.484, 2.900e-6, 3.377e-6, 4.769e-7, 3.137e-6, 3.455e-6, 3.182e-7
-0.488, 2.906e-6, 3.410e-6, 5.036e-7, 3.140e-6, 3.487e-6, 3.472e-7
-0.492, 2.911e-6, 3.440e-6, 5.297e-7, 3.142e-6, 3.516e-6, 3.741e-7
-0.496, 2.902e-6, 3.465e-6, 5.624e-7, 3.138e-6, 3.542e-6, 4.041e-7
-0.500, 2.905e-6, 3.494e-6, 5.896e-7, 3.147e-6, 3.575e-6, 4.288e-7
-0.504, 2.914e-6, 3.524e-6, 6.094e-7, 3.159e-6, 3.608e-6, 4.486e-7
-0.508, 2.922e-6, 3.558e-6, 6.356e-7, 3.163e-6, 3.640e-6, 4.776e-7
-0.512, 2.927e-6, 3.587e-6, 6.601e-7, 3.166e-6, 3.668e-6, 5.028e-7
-0.516, 2.919e-6, 3.610e-6, 6.910e-7, 3.162e-6, 3.693e-6, 5.310e-7
-0.520, 2.925e-6, 3.640e-6, 7.148e-7, 3.175e-6, 3.728e-6, 5.524e-7
-0.524, 2.932e-6, 3.668e-6, 7.352e-7, 3.184e-6, 3.757e-6, 5.731e-7
-0.528, 2.942e-6, 3.701e-6, 7.590e-7, 3.190e-6, 3.789e-6, 5.995e-7
-0.532, 2.948e-6, 3.730e-6, 7.821e-7, 3.195e-6, 3.818e-6, 6.229e-7
-0.536, 2.942e-6, 3.753e-6, 8.113e-7, 3.193e-6, 3.842e-6, 6.497e-7
-0.540, 2.950e-6, 3.784e-6, 8.343e-7, 3.206e-6, 3.877e-6, 6.707e-7
-0.544, 2.959e-6, 3.811e-6, 8.518e-7, 3.218e-6, 3.906e-6, 6.882e-7
-0.548, 2.971e-6, 3.846e-6, 8.750e-7, 3.226e-6, 3.940e-6, 7.137e-7
-0.552, 2.979e-6, 3.875e-6, 8.963e-7, 3.233e-6, 3.969e-6, 7.360e-7
-0.556, 2.974e-6, 3.898e-6, 9.240e-7, 3.233e-6, 3.994e-6, 7.606e-7
-0.560, 2.985e-6, 3.929e-6, 9.442e-7, 3.251e-6, 4.029e-6, 7.782e-7
-0.564, 2.999e-6, 3.958e-6, 9.593e-7, 3.266e-6, 4.060e-6, 7.938e-7
-0.568, 3.010e-6, 3.992e-6, 9.814e-7, 3.276e-6, 4.094e-6, 8.181e-7
-0.572, 3.021e-6, 4.023e-6, 1.002e-6, 3.285e-6, 4.124e-6, 8.389e-7
-0.576, 3.021e-6, 4.048e-6, 1.027e-6, 3.290e-6, 4.151e-6, 8.615e-7
-0.580, 3.031e-6, 4.078e-6, 1.047e-6, 3.309e-6, 4.187e-6, 8.777e-7
-0.584, 3.048e-6, 4.108e-6, 1.060e-6, 3.328e-6, 4.219e-6, 8.906e-7
-0.588, 3.065e-6, 4.146e-6, 1.081e-6, 3.342e-6, 4.257e-6, 9.147e-7
-0.592, 3.078e-6, 4.177e-6, 1.098e-6, 3.355e-6, 4.288e-6, 9.325e-7
-0.596, 3.080e-6, 4.203e-6, 1.123e-6, 3.363e-6, 4.317e-6, 9.548e-7
-0.600, 3.096e-6, 4.237e-6, 1.141e-6, 3.386e-6, 4.356e-6, 9.694e-7
-0.604, 3.113e-6, 4.267e-6, 1.154e-6, 3.407e-6, 4.390e-6, 9.827e-7
-0.608, 3.134e-6, 4.306e-6, 1.173e-6, 3.426e-6, 4.429e-6, 1.003e-6
-0.612, 3.152e-6, 4.342e-6, 1.190e-6, 3.444e-6, 4.465e-6, 1.021e-6
-0.616, 3.157e-6, 4.369e-6, 1.212e-6, 3.455e-6, 4.496e-6, 1.041e-6
-0.620, 3.175e-6, 4.405e-6, 1.230e-6, 3.481e-6, 4.537e-6, 1.056e-6
-0.624, 3.198e-6, 4.439e-6, 1.241e-6, 3.509e-6, 4.576e-6, 1.067e-6
-0.628, 3.224e-6, 4.482e-6, 1.257e-6, 3.534e-6, 4.620e-6, 1.086e-6
-0.632, 3.244e-6, 4.519e-6, 1.275e-6, 3.555e-6, 4.658e-6, 1.103e-6
-0.636, 3.255e-6, 4.550e-6, 1.295e-6, 3.572e-6, 4.694e-6, 1.122e-6
-0.640, 3.279e-6, 4.590e-6, 1.311e-6, 3.606e-6, 4.741e-6, 1.135e-6
-0.644, 3.305e-6, 4.628e-6, 1.323e-6, 3.637e-6, 4.784e-6, 1.147e-6
-0.648, 3.335e-6, 4.674e-6, 1.339e-6, 3.667e-6, 4.832e-6, 1.164e-6
-0.652, 3.361e-6, 4.715e-6, 1.354e-6, 3.694e-6, 4.876e-6, 1.182e-6
-0.656, 3.378e-6, 4.752e-6, 1.374e-6, 3.720e-6, 4.918e-6, 1.199e-6
-0.660, 3.403e-6, 4.794e-6, 1.391e-6, 3.756e-6, 4.969e-6, 1.214e-6
-0.664, 3.438e-6, 4.838e-6, 1.400e-6, 3.796e-6, 5.020e-6, 1.224e-6
-0.668, 3.474e-6, 4.890e-6, 1.416e-6, 3.833e-6, 5.075e-6, 1.242e-6
-0.672, 3.508e-6, 4.937e-6, 1.429e-6, 3.869e-6, 5.126e-6, 1.257e-6
-0.676, 3.529e-6, 4.979e-6, 1.450e-6, 3.900e-6, 5.175e-6, 1.276e-6
-0.680, 3.563e-6, 5.029e-6, 1.465e-6, 3.946e-6, 5.235e-6, 1.289e-6
-0.684, 3.606e-6, 5.079e-6, 1.474e-6, 3.995e-6, 5.294e-6, 1.299e-6
-0.688, 3.649e-6, 5.137e-6, 1.488e-6, 4.040e-6, 5.357e-6, 1.318e-6
-0.692, 3.690e-6, 5.191e-6, 1.501e-6, 4.085e-6, 5.417e-6, 1.332e-6
-0.696, 3.719e-6, 5.241e-6, 1.522e-6, 4.125e-6, 5.476e-6, 1.352e-6
-0.700, 3.762e-6, 5.298e-6, 1.537e-6, 4.180e-6, 5.545e-6, 1.365e-6
