Sept. 28, 2023   15:10:39
Square Wave Voltammetry
File: 70_100_
Data Source:  Experiment
Instrument Model:  CHI1040C
Header: 
Note: 

Init E (V) = 0
Final E (V) = -0.7
Incr E (V) = 0.004
Amplitude (V) = 0.05
Frequency (Hz) = 70
Quiet Time (sec) = 2
Sensitivity (A/V) = 1e-5

E2 Scan On
Sens 2 = 1e-005

Results:

Channel 1:
Difference:

Forward:

Reverse:

Channel 2:
Difference:

Forward:

Reverse:

Potential/V, i1d/A, i1f/A, i1r/A, i2d/A, i2f/A, i2r/A

-0.004, 4.725e-6, 9.183e-7, -3.807e-6, 5.565e-6, 1.042e-6, -4.523e-6
-0.008, 6.331e-6, 2.860e-6, -3.472e-6, 7.564e-6, 3.429e-6, -4.135e-6
-0.012, 6.196e-6, 2.884e-6, -3.312e-6, 7.402e-6, 3.453e-6, -3.949e-6
-0.016, 6.024e-6, 2.845e-6, -3.179e-6, 7.200e-6, 3.404e-6, -3.795e-6
-0.020, 5.854e-6, 2.802e-6, -3.052e-6, 7.005e-6, 3.353e-6, -3.652e-6
-0.024, 5.695e-6, 2.750e-6, -2.945e-6, 6.829e-6, 3.295e-6, -3.533e-6
-0.028, 5.533e-6, 2.695e-6, -2.838e-6, 6.646e-6, 3.235e-6, -3.412e-6
-0.032, 5.379e-6, 2.641e-6, -2.738e-6, 6.471e-6, 3.173e-6, -3.297e-6
-0.036, 5.244e-6, 2.596e-6, -2.648e-6, 6.312e-6, 3.121e-6, -3.191e-6
-0.040, 5.119e-6, 2.549e-6, -2.570e-6, 6.163e-6, 3.064e-6, -3.099e-6
-0.044, 5.002e-6, 2.507e-6, -2.495e-6, 6.024e-6, 3.013e-6, -3.010e-6
-0.048, 4.891e-6, 2.472e-6, -2.420e-6, 5.896e-6, 2.971e-6, -2.925e-6
-0.052, 4.782e-6, 2.433e-6, -2.350e-6, 5.773e-6, 2.927e-6, -2.846e-6
-0.056, 4.676e-6, 2.392e-6, -2.284e-6, 5.656e-6, 2.883e-6, -2.773e-6
-0.060, 4.577e-6, 2.357e-6, -2.220e-6, 5.543e-6, 2.844e-6, -2.700e-6
-0.064, 4.490e-6, 2.326e-6, -2.165e-6, 5.440e-6, 2.806e-6, -2.634e-6
-0.068, 4.413e-6, 2.297e-6, -2.116e-6, 5.341e-6, 2.769e-6, -2.573e-6
-0.072, 4.341e-6, 2.270e-6, -2.071e-6, 5.253e-6, 2.734e-6, -2.519e-6
-0.076, 4.272e-6, 2.250e-6, -2.022e-6, 5.173e-6, 2.710e-6, -2.462e-6
-0.080, 4.205e-6, 2.226e-6, -1.979e-6, 5.097e-6, 2.682e-6, -2.415e-6
-0.084, 4.133e-6, 2.199e-6, -1.935e-6, 5.020e-6, 2.653e-6, -2.367e-6
-0.088, 4.068e-6, 2.175e-6, -1.893e-6, 4.944e-6, 2.626e-6, -2.317e-6
-0.092, 4.017e-6, 2.159e-6, -1.858e-6, 4.877e-6, 2.604e-6, -2.273e-6
-0.096, 3.970e-6, 2.139e-6, -1.831e-6, 4.814e-6, 2.577e-6, -2.237e-6
-0.100, 3.930e-6, 2.129e-6, -1.801e-6, 4.760e-6, 2.561e-6, -2.199e-6
-0.104, 3.891e-6, 2.119e-6, -1.772e-6, 4.712e-6, 2.546e-6, -2.166e-6
-0.108, 3.851e-6, 2.106e-6, -1.745e-6, 4.665e-6, 2.530e-6, -2.136e-6
-0.112, 3.809e-6, 2.091e-6, -1.718e-6, 4.620e-6, 2.514e-6, -2.106e-6
-0.116, 3.768e-6, 2.078e-6, -1.691e-6, 4.568e-6, 2.496e-6, -2.072e-6
-0.120, 3.740e-6, 2.071e-6, -1.669e-6, 4.528e-6, 2.485e-6, -2.044e-6
-0.124, 3.717e-6, 2.063e-6, -1.654e-6, 4.491e-6, 2.470e-6, -2.021e-6
-0.128, 3.699e-6, 2.060e-6, -1.639e-6, 4.459e-6, 2.460e-6, -1.999e-6
-0.132, 3.681e-6, 2.061e-6, -1.619e-6, 4.432e-6, 2.457e-6, -1.975e-6
-0.136, 3.663e-6, 2.058e-6, -1.606e-6, 4.410e-6, 2.451e-6, -1.959e-6
-0.140, 3.637e-6, 2.049e-6, -1.587e-6, 4.377e-6, 2.440e-6, -1.937e-6
-0.144, 3.614e-6, 2.045e-6, -1.569e-6, 4.347e-6, 2.432e-6, -1.915e-6
-0.148, 3.605e-6, 2.048e-6, -1.557e-6, 4.324e-6, 2.429e-6, -1.896e-6
-0.152, 3.602e-6, 2.049e-6, -1.554e-6, 4.306e-6, 2.421e-6, -1.885e-6
-0.156, 3.600e-6, 2.054e-6, -1.546e-6, 4.292e-6, 2.421e-6, -1.871e-6
-0.160, 3.598e-6, 2.062e-6, -1.536e-6, 4.280e-6, 2.422e-6, -1.858e-6
-0.164, 3.594e-6, 2.067e-6, -1.527e-6, 4.270e-6, 2.423e-6, -1.847e-6
-0.168, 3.585e-6, 2.067e-6, -1.518e-6, 4.254e-6, 2.420e-6, -1.834e-6
-0.172, 3.579e-6, 2.072e-6, -1.507e-6, 4.238e-6, 2.420e-6, -1.818e-6
-0.176, 3.586e-6, 2.082e-6, -1.504e-6, 4.232e-6, 2.423e-6, -1.809e-6
-0.180, 3.594e-6, 2.090e-6, -1.503e-6, 4.222e-6, 2.421e-6, -1.801e-6
-0.184, 3.607e-6, 2.102e-6, -1.504e-6, 4.220e-6, 2.425e-6, -1.795e-6
-0.188, 3.620e-6, 2.120e-6, -1.500e-6, 4.222e-6, 2.436e-6, -1.787e-6
-0.192, 3.629e-6, 2.130e-6, -1.499e-6, 4.223e-6, 2.440e-6, -1.783e-6
-0.196, 3.633e-6, 2.138e-6, -1.495e-6, 4.219e-6, 2.443e-6, -1.776e-6
-0.200, 3.642e-6, 2.151e-6, -1.491e-6, 4.216e-6, 2.450e-6, -1.766e-6
-0.204, 3.658e-6, 2.168e-6, -1.490e-6, 4.214e-6, 2.457e-6, -1.757e-6
-0.208, 3.680e-6, 2.182e-6, -1.498e-6, 4.218e-6, 2.460e-6, -1.757e-6
-0.212, 3.702e-6, 2.202e-6, -1.500e-6, 4.222e-6, 2.469e-6, -1.753e-6
-0.216, 3.722e-6, 2.223e-6, -1.499e-6, 4.230e-6, 2.482e-6, -1.748e-6
-0.220, 3.745e-6, 2.242e-6, -1.503e-6, 4.242e-6, 2.494e-6, -1.748e-6
-0.224, 3.753e-6, 2.252e-6, -1.501e-6, 4.239e-6, 2.498e-6, -1.741e-6
-0.228, 3.767e-6, 2.269e-6, -1.498e-6, 4.238e-6, 2.507e-6, -1.731e-6
-0.232, 3.791e-6, 2.289e-6, -1.502e-6, 4.246e-6, 2.517e-6, -1.729e-6
-0.236, 3.817e-6, 2.308e-6, -1.509e-6, 4.251e-6, 2.524e-6, -1.727e-6
-0.240, 3.843e-6, 2.329e-6, -1.514e-6, 4.260e-6, 2.535e-6, -1.725e-6
-0.244, 3.869e-6, 2.354e-6, -1.515e-6, 4.273e-6, 2.552e-6, -1.721e-6
-0.248, 3.890e-6, 2.372e-6, -1.518e-6, 4.285e-6, 2.564e-6, -1.721e-6
-0.252, 3.900e-6, 2.386e-6, -1.514e-6, 4.286e-6, 2.572e-6, -1.714e-6
-0.256, 3.912e-6, 2.403e-6, -1.510e-6, 4.287e-6, 2.583e-6, -1.704e-6
-0.260, 3.934e-6, 2.423e-6, -1.511e-6, 4.293e-6, 2.595e-6, -1.698e-6
-0.264, 3.956e-6, 2.442e-6, -1.515e-6, 4.299e-6, 2.604e-6, -1.695e-6
-0.268, 3.977e-6, 2.463e-6, -1.514e-6, 4.307e-6, 2.618e-6, -1.689e-6
-0.272, 3.996e-6, 2.486e-6, -1.510e-6, 4.320e-6, 2.637e-6, -1.683e-6
-0.276, 4.006e-6, 2.502e-6, -1.504e-6, 4.328e-6, 2.650e-6, -1.677e-6
-0.280, 4.013e-6, 2.517e-6, -1.496e-6, 4.332e-6, 2.662e-6, -1.670e-6
-0.284, 4.014e-6, 2.532e-6, -1.482e-6, 4.329e-6, 2.675e-6, -1.654e-6
-0.288, 4.027e-6, 2.551e-6, -1.476e-6, 4.336e-6, 2.690e-6, -1.646e-6
-0.292, 4.040e-6, 2.570e-6, -1.469e-6, 4.340e-6, 2.703e-6, -1.638e-6
-0.296, 4.051e-6, 2.592e-6, -1.459e-6, 4.348e-6, 2.721e-6, -1.627e-6
-0.300, 4.060e-6, 2.617e-6, -1.444e-6, 4.359e-6, 2.744e-6, -1.616e-6
-0.304, 4.063e-6, 2.635e-6, -1.428e-6, 4.368e-6, 2.762e-6, -1.606e-6
-0.308, 4.062e-6, 2.652e-6, -1.410e-6, 4.374e-6, 2.780e-6, -1.595e-6
-0.312, 4.060e-6, 2.672e-6, -1.388e-6, 4.376e-6, 2.800e-6, -1.576e-6
-0.316, 4.068e-6, 2.696e-6, -1.372e-6, 4.384e-6, 2.820e-6, -1.564e-6
-0.320, 4.075e-6, 2.720e-6, -1.356e-6, 4.390e-6, 2.840e-6, -1.550e-6
-0.324, 4.082e-6, 2.746e-6, -1.336e-6, 4.398e-6, 2.862e-6, -1.536e-6
-0.328, 4.092e-6, 2.779e-6, -1.314e-6, 4.416e-6, 2.894e-6, -1.522e-6
-0.332, 4.093e-6, 2.803e-6, -1.290e-6, 4.428e-6, 2.920e-6, -1.509e-6
-0.336, 4.093e-6, 2.827e-6, -1.265e-6, 4.437e-6, 2.944e-6, -1.493e-6
-0.340, 4.087e-6, 2.853e-6, -1.234e-6, 4.439e-6, 2.969e-6, -1.470e-6
-0.344, 4.101e-6, 2.887e-6, -1.214e-6, 4.454e-6, 2.998e-6, -1.456e-6
-0.348, 4.110e-6, 2.918e-6, -1.193e-6, 4.466e-6, 3.025e-6, -1.441e-6
-0.352, 4.122e-6, 2.953e-6, -1.168e-6, 4.481e-6, 3.056e-6, -1.424e-6
-0.356, 4.135e-6, 2.994e-6, -1.140e-6, 4.502e-6, 3.096e-6, -1.407e-6
-0.360, 4.141e-6, 3.026e-6, -1.115e-6, 4.520e-6, 3.127e-6, -1.393e-6
-0.364, 4.140e-6, 3.058e-6, -1.082e-6, 4.530e-6, 3.158e-6, -1.371e-6
-0.368, 4.145e-6, 3.095e-6, -1.050e-6, 4.541e-6, 3.194e-6, -1.347e-6
-0.372, 4.160e-6, 3.134e-6, -1.026e-6, 4.559e-6, 3.229e-6, -1.330e-6
-0.376, 4.177e-6, 3.175e-6, -1.002e-6, 4.575e-6, 3.263e-6, -1.312e-6
-0.380, 4.191e-6, 3.218e-6, -9.734e-7, 4.594e-6, 3.303e-6, -1.291e-6
-0.384, 4.212e-6, 3.266e-6, -9.458e-7, 4.623e-6, 3.348e-6, -1.275e-6
-0.388, 4.219e-6, 3.306e-6, -9.131e-7, 4.641e-6, 3.387e-6, -1.254e-6
-0.392, 4.227e-6, 3.344e-6, -8.831e-7, 4.658e-6, 3.424e-6, -1.233e-6
-0.396, 4.234e-6, 3.386e-6, -8.479e-7, 4.671e-6, 3.465e-6, -1.206e-6
-0.400, 4.254e-6, 3.433e-6, -8.211e-7, 4.691e-6, 3.506e-6, -1.186e-6
-0.404, 4.276e-6, 3.481e-6, -7.945e-7, 4.714e-6, 3.549e-6, -1.165e-6
-0.408, 4.293e-6, 3.529e-6, -7.648e-7, 4.736e-6, 3.592e-6, -1.144e-6
-0.412, 4.312e-6, 3.580e-6, -7.322e-7, 4.761e-6, 3.641e-6, -1.120e-6
-0.416, 4.330e-6, 3.626e-6, -7.031e-7, 4.789e-6, 3.688e-6, -1.102e-6
-0.420, 4.340e-6, 3.670e-6, -6.698e-7, 4.807e-6, 3.730e-6, -1.077e-6
-0.424, 4.352e-6, 3.719e-6, -6.329e-7, 4.825e-6, 3.777e-6, -1.048e-6
-0.428, 4.374e-6, 3.769e-6, -6.043e-7, 4.850e-6, 3.824e-6, -1.025e-6
-0.432, 4.396e-6, 3.818e-6, -5.773e-7, 4.871e-6, 3.867e-6, -1.004e-6
-0.436, 4.419e-6, 3.872e-6, -5.472e-7, 4.898e-6, 3.917e-6, -9.803e-7
-0.440, 4.442e-6, 3.927e-6, -5.156e-7, 4.929e-6, 3.971e-6, -9.579e-7
-0.444, 4.459e-6, 3.974e-6, -4.845e-7, 4.954e-6, 4.019e-6, -9.350e-7
-0.448, 4.468e-6, 4.020e-6, -4.479e-7, 4.973e-6, 4.066e-6, -9.076e-7
-0.452, 4.484e-6, 4.073e-6, -4.111e-7, 4.995e-6, 4.118e-6, -8.769e-7
-0.456, 4.509e-6, 4.126e-6, -3.832e-7, 5.022e-6, 4.168e-6, -8.537e-7
-0.460, 4.531e-6, 4.176e-6, -3.550e-7, 5.043e-6, 4.214e-6, -8.292e-7
-0.464, 4.554e-6, 4.229e-6, -3.243e-7, 5.069e-6, 4.264e-6, -8.051e-7
-0.468, 4.579e-6, 4.288e-6, -2.910e-7, 5.104e-6, 4.324e-6, -7.797e-7
-0.472, 4.594e-6, 4.335e-6, -2.596e-7, 5.130e-6, 4.372e-6, -7.581e-7
-0.476, 4.607e-6, 4.382e-6, -2.243e-7, 5.149e-6, 4.421e-6, -7.284e-7
-0.480, 4.625e-6, 4.435e-6, -1.903e-7, 5.173e-6, 4.473e-6, -6.999e-7
-0.484, 4.646e-6, 4.487e-6, -1.589e-7, 5.196e-6, 4.524e-6, -6.722e-7
-0.488, 4.677e-6, 4.541e-6, -1.355e-7, 5.226e-6, 4.575e-6, -6.517e-7
-0.492, 4.698e-6, 4.596e-6, -1.015e-7, 5.252e-6, 4.629e-6, -6.233e-7
-0.496, 4.723e-6, 4.653e-6, -7.074e-8, 5.287e-6, 4.687e-6, -6.001e-7
-0.500, 4.743e-6, 4.703e-6, -3.972e-8, 5.317e-6, 4.741e-6, -5.763e-7
-0.504, 4.755e-6, 4.751e-6, -4.671e-9, 5.338e-6, 4.791e-6, -5.473e-7
-0.508, 4.772e-6, 4.804e-6, 3.240e-8, 5.361e-6, 4.846e-6, -5.146e-7
-0.512, 4.798e-6, 4.856e-6, 5.767e-8, 5.388e-6, 4.897e-6, -4.918e-7
-0.516, 4.828e-6, 4.912e-6, 8.402e-8, 5.419e-6, 4.951e-6, -4.680e-7
-0.520, 4.855e-6, 4.967e-6, 1.125e-7, 5.450e-6, 5.007e-6, -4.434e-7
-0.524, 4.881e-6, 5.024e-6, 1.435e-7, 5.485e-6, 5.067e-6, -4.184e-7
-0.528, 4.902e-6, 5.075e-6, 1.732e-7, 5.517e-6, 5.121e-6, -3.957e-7
-0.532, 4.918e-6, 5.123e-6, 2.053e-7, 5.543e-6, 5.175e-6, -3.686e-7
-0.536, 4.938e-6, 5.178e-6, 2.395e-7, 5.571e-6, 5.233e-6, -3.380e-7
-0.540, 4.969e-6, 5.233e-6, 2.640e-7, 5.603e-6, 5.288e-6, -3.145e-7
-0.544, 5.000e-6, 5.288e-6, 2.871e-7, 5.636e-6, 5.343e-6, -2.932e-7
-0.548, 5.027e-6, 5.345e-6, 3.177e-7, 5.669e-6, 5.403e-6, -2.663e-7
-0.552, 5.060e-6, 5.404e-6, 3.438e-7, 5.711e-6, 5.466e-6, -2.448e-7
-0.556, 5.085e-6, 5.456e-6, 3.714e-7, 5.749e-6, 5.526e-6, -2.229e-7
-0.560, 5.105e-6, 5.507e-6, 4.020e-7, 5.780e-6, 5.583e-6, -1.973e-7
-0.564, 5.129e-6, 5.564e-6, 4.347e-7, 5.810e-6, 5.644e-6, -1.661e-7
-0.568, 5.165e-6, 5.621e-6, 4.561e-7, 5.849e-6, 5.704e-6, -1.448e-7
-0.572, 5.202e-6, 5.679e-6, 4.777e-7, 5.889e-6, 5.765e-6, -1.241e-7
-0.576, 5.238e-6, 5.740e-6, 5.021e-7, 5.934e-6, 5.832e-6, -1.028e-7
-0.580, 5.275e-6, 5.803e-6, 5.272e-7, 5.982e-6, 5.900e-6, -8.138e-8
-0.584, 5.303e-6, 5.855e-6, 5.528e-7, 6.024e-6, 5.962e-6, -6.194e-8
-0.588, 5.328e-6, 5.908e-6, 5.799e-7, 6.061e-6, 6.024e-6, -3.673e-8
-0.592, 5.361e-6, 5.969e-6, 6.086e-7, 6.102e-6, 6.093e-6, -9.075e-9
-0.596, 5.401e-6, 6.029e-6, 6.282e-7, 6.147e-6, 6.158e-6, 1.069e-8
-0.600, 5.446e-6, 6.090e-6, 6.433e-7, 6.198e-6, 6.224e-6, 2.637e-8
-0.604, 5.488e-6, 6.157e-6, 6.689e-7, 6.248e-6, 6.299e-6, 5.023e-8
-0.608, 5.532e-6, 6.221e-6, 6.890e-7, 6.306e-6, 6.373e-6, 6.648e-8
-0.612, 5.569e-6, 6.280e-6, 7.111e-7, 6.359e-6, 6.443e-6, 8.428e-8
-0.616, 5.599e-6, 6.334e-6, 7.349e-7, 6.403e-6, 6.510e-6, 1.064e-7
-0.620, 5.642e-6, 6.402e-6, 7.602e-7, 6.456e-6, 6.588e-6, 1.314e-7
-0.624, 5.688e-6, 6.463e-6, 7.749e-7, 6.510e-6, 6.658e-6, 1.481e-7
-0.628, 5.742e-6, 6.531e-6, 7.889e-7, 6.570e-6, 6.733e-6, 1.630e-7
-0.632, 5.790e-6, 6.599e-6, 8.087e-7, 6.631e-6, 6.812e-6, 1.815e-7
-0.636, 5.844e-6, 6.670e-6, 8.263e-7, 6.701e-6, 6.898e-6, 1.972e-7
-0.640, 5.887e-6, 6.732e-6, 8.448e-7, 6.764e-6, 6.975e-6, 2.117e-7
-0.644, 5.930e-6, 6.794e-6, 8.638e-7, 6.821e-6, 7.052e-6, 2.304e-7
-0.648, 5.979e-6, 6.864e-6, 8.848e-7, 6.884e-6, 7.135e-6, 2.519e-7
-0.652, 6.039e-6, 6.934e-6, 8.955e-7, 6.953e-6, 7.218e-6, 2.649e-7
-0.656, 6.101e-6, 7.006e-6, 9.049e-7, 7.025e-6, 7.301e-6, 2.762e-7
-0.660, 6.160e-6, 7.082e-6, 9.222e-7, 7.099e-6, 7.392e-6, 2.938e-7
-0.664, 6.227e-6, 7.160e-6, 9.330e-7, 7.183e-6, 7.487e-6, 3.035e-7
-0.668, 6.279e-6, 7.229e-6, 9.493e-7, 7.258e-6, 7.575e-6, 3.171e-7
-0.672, 6.333e-6, 7.297e-6, 9.642e-7, 7.330e-6, 7.662e-6, 3.323e-7
-0.676, 6.397e-6, 7.377e-6, 9.799e-7, 7.411e-6, 7.760e-6, 3.490e-7
-0.680, 6.467e-6, 7.453e-6, 9.858e-7, 7.494e-6, 7.852e-6, 3.579e-7
-0.684, 6.544e-6, 7.536e-6, 9.923e-7, 7.582e-6, 7.950e-6, 3.683e-7
-0.688, 6.615e-6, 7.618e-6, 1.003e-6, 7.671e-6, 8.050e-6, 3.791e-7
-0.692, 6.694e-6, 7.705e-6, 1.011e-6, 7.772e-6, 8.158e-6, 3.863e-7
-0.696, 6.762e-6, 7.783e-6, 1.020e-6, 7.866e-6, 8.259e-6, 3.937e-7
-0.700, 6.834e-6, 7.865e-6, 1.032e-6, 7.960e-6, 8.366e-6, 4.060e-7
