July 31, 2023   13:36:33
Square Wave Voltammetry
File: 10-0.bin
Data Source:  Experiment
Instrument Model:  CHI1040C
Header: 
Note: 

Init E (V) = 0
Final E (V) = -0.5
Incr E (V) = 0.004
Amplitude (V) = 0.05
Frequency (Hz) = 10
Quiet Time (sec) = 2
Sensitivity (A/V) = 1e-5

E2 Scan On
Sens 2 = 1e-005

E3 Scan On
Sens 3 = 1e-005

E4 Scan On
Sens 4 = 1e-005

Results:

Channel 1:
Difference:
Ep = -0.248V
ip = 8.979e-7A
Ap = 8.869e-8VA

Forward:
Ep = -0.244V
ip = 7.755e-7A
Ah = 3.030e-8VA

Reverse:
Ep = -0.296V
ip = -4.193e-7A
Ah = -1.464e-8VA

Channel 2:
Difference:
Ep = -0.248V
ip = 8.234e-7A
Ap = 8.048e-8VA

Forward:
Ep = -0.244V
ip = 7.178e-7A
Ah = 2.691e-8VA

Reverse:
Ep = -0.296V
ip = -3.995e-7A
Ah = -1.419e-8VA

Channel 3:
Difference:
Ep = -0.252V
ip = 1.038e-6A
Ap = 1.010e-7VA

Forward:
Ep = -0.248V
ip = 9.127e-7A
Ah = 3.739e-8VA

Reverse:
Ep = -0.296V
ip = -4.923e-7A
Ah = -1.754e-8VA

Channel 4:
Difference:
Ep = -0.252V
ip = 6.450e-7A
Ap = 6.281e-8VA

Forward:
Ep = -0.244V
ip = 5.698e-7A
Ah = 2.121e-8VA

Reverse:
Ep = -0.296V
ip = -3.103e-7A
Ah = -1.114e-8VA

Potential/V, i1d/A, i1f/A, i1r/A, i2d/A, i2f/A, i2r/A, i3d/A, i3f/A, i3r/A, i4d/A, i4f/A, i4r/A

-0.004, 4.431e-8, 2.233e-8, -2.198e-8, 3.066e-8, 1.728e-8, -1.339e-8, 4.473e-8, 1.669e-8, -2.804e-8, 3.397e-8, 1.720e-8, -1.677e-8
-0.008, 5.327e-8, 3.332e-8, -1.996e-8, 3.825e-8, 2.633e-8, -1.191e-8, 5.503e-8, 2.971e-8, -2.533e-8, 4.202e-8, 2.708e-8, -1.494e-8
-0.012, 5.381e-8, 3.520e-8, -1.861e-8, 3.857e-8, 2.737e-8, -1.120e-8, 5.481e-8, 3.112e-8, -2.368e-8, 4.241e-8, 2.855e-8, -1.386e-8
-0.016, 5.475e-8, 3.606e-8, -1.869e-8, 4.006e-8, 2.872e-8, -1.134e-8, 5.467e-8, 3.176e-8, -2.291e-8, 4.311e-8, 2.923e-8, -1.388e-8
-0.020, 5.533e-8, 3.716e-8, -1.817e-8, 4.090e-8, 2.972e-8, -1.119e-8, 5.468e-8, 3.260e-8, -2.208e-8, 4.402e-8, 3.037e-8, -1.364e-8
-0.024, 5.578e-8, 3.761e-8, -1.817e-8, 4.107e-8, 3.004e-8, -1.103e-8, 5.348e-8, 3.216e-8, -2.131e-8, 4.421e-8, 3.059e-8, -1.362e-8
-0.028, 5.701e-8, 3.883e-8, -1.818e-8, 4.227e-8, 3.096e-8, -1.130e-8, 5.433e-8, 3.289e-8, -2.144e-8, 4.525e-8, 3.134e-8, -1.391e-8
-0.032, 5.712e-8, 3.899e-8, -1.813e-8, 4.236e-8, 3.114e-8, -1.121e-8, 5.345e-8, 3.281e-8, -2.064e-8, 4.506e-8, 3.161e-8, -1.345e-8
-0.036, 5.776e-8, 3.943e-8, -1.832e-8, 4.293e-8, 3.142e-8, -1.151e-8, 5.326e-8, 3.275e-8, -2.051e-8, 4.604e-8, 3.217e-8, -1.387e-8
-0.040, 5.816e-8, 3.976e-8, -1.840e-8, 4.327e-8, 3.144e-8, -1.183e-8, 5.291e-8, 3.258e-8, -2.033e-8, 4.625e-8, 3.244e-8, -1.381e-8
-0.044, 5.863e-8, 4.031e-8, -1.832e-8, 4.406e-8, 3.224e-8, -1.181e-8, 5.238e-8, 3.281e-8, -1.956e-8, 4.667e-8, 3.270e-8, -1.398e-8
-0.048, 5.827e-8, 4.005e-8, -1.822e-8, 4.380e-8, 3.207e-8, -1.174e-8, 5.190e-8, 3.250e-8, -1.940e-8, 4.646e-8, 3.273e-8, -1.372e-8
-0.052, 5.905e-8, 4.074e-8, -1.830e-8, 4.414e-8, 3.228e-8, -1.185e-8, 5.115e-8, 3.227e-8, -1.888e-8, 4.665e-8, 3.285e-8, -1.380e-8
-0.056, 5.921e-8, 4.072e-8, -1.849e-8, 4.513e-8, 3.269e-8, -1.244e-8, 5.129e-8, 3.230e-8, -1.898e-8, 4.738e-8, 3.302e-8, -1.436e-8
-0.060, 5.952e-8, 4.090e-8, -1.862e-8, 4.571e-8, 3.289e-8, -1.282e-8, 5.063e-8, 3.196e-8, -1.867e-8, 4.748e-8, 3.297e-8, -1.451e-8
-0.064, 5.971e-8, 4.078e-8, -1.893e-8, 4.624e-8, 3.299e-8, -1.325e-8, 5.055e-8, 3.173e-8, -1.882e-8, 4.776e-8, 3.313e-8, -1.463e-8
-0.068, 6.060e-8, 4.159e-8, -1.901e-8, 4.654e-8, 3.311e-8, -1.343e-8, 5.035e-8, 3.163e-8, -1.872e-8, 4.798e-8, 3.330e-8, -1.469e-8
-0.072, 6.099e-8, 4.194e-8, -1.905e-8, 4.752e-8, 3.360e-8, -1.392e-8, 5.071e-8, 3.203e-8, -1.868e-8, 4.856e-8, 3.368e-8, -1.488e-8
-0.076, 6.153e-8, 4.240e-8, -1.913e-8, 4.798e-8, 3.394e-8, -1.404e-8, 5.041e-8, 3.205e-8, -1.836e-8, 4.911e-8, 3.382e-8, -1.530e-8
-0.080, 6.179e-8, 4.255e-8, -1.924e-8, 4.798e-8, 3.398e-8, -1.400e-8, 5.058e-8, 3.199e-8, -1.859e-8, 4.915e-8, 3.389e-8, -1.526e-8
-0.084, 6.282e-8, 4.312e-8, -1.970e-8, 4.913e-8, 3.445e-8, -1.469e-8, 5.108e-8, 3.251e-8, -1.857e-8, 4.990e-8, 3.439e-8, -1.551e-8
-0.088, 6.278e-8, 4.371e-8, -1.907e-8, 4.945e-8, 3.515e-8, -1.429e-8, 5.120e-8, 3.295e-8, -1.825e-8, 5.011e-8, 3.485e-8, -1.526e-8
-0.092, 6.259e-8, 4.354e-8, -1.904e-8, 4.935e-8, 3.492e-8, -1.443e-8, 5.090e-8, 3.285e-8, -1.805e-8, 4.964e-8, 3.452e-8, -1.512e-8
-0.096, 6.308e-8, 4.393e-8, -1.915e-8, 4.985e-8, 3.538e-8, -1.447e-8, 5.104e-8, 3.315e-8, -1.789e-8, 5.047e-8, 3.506e-8, -1.541e-8
-0.100, 6.284e-8, 4.432e-8, -1.852e-8, 4.987e-8, 3.573e-8, -1.414e-8, 5.069e-8, 3.336e-8, -1.732e-8, 5.027e-8, 3.524e-8, -1.503e-8
-0.104, 6.315e-8, 4.516e-8, -1.799e-8, 4.996e-8, 3.649e-8, -1.347e-8, 5.103e-8, 3.421e-8, -1.682e-8, 5.033e-8, 3.586e-8, -1.447e-8
-0.108, 6.381e-8, 4.542e-8, -1.839e-8, 5.029e-8, 3.663e-8, -1.366e-8, 5.201e-8, 3.502e-8, -1.700e-8, 5.077e-8, 3.610e-8, -1.468e-8
-0.112, 6.384e-8, 4.619e-8, -1.765e-8, 5.019e-8, 3.714e-8, -1.305e-8, 5.153e-8, 3.519e-8, -1.634e-8, 5.046e-8, 3.616e-8, -1.430e-8
-0.116, 6.436e-8, 4.694e-8, -1.742e-8, 5.044e-8, 3.785e-8, -1.259e-8, 5.204e-8, 3.624e-8, -1.581e-8, 5.053e-8, 3.686e-8, -1.366e-8
-0.120, 6.404e-8, 4.718e-8, -1.686e-8, 5.044e-8, 3.818e-8, -1.226e-8, 5.206e-8, 3.667e-8, -1.539e-8, 5.051e-8, 3.726e-8, -1.325e-8
-0.124, 6.489e-8, 4.849e-8, -1.640e-8, 5.083e-8, 3.896e-8, -1.187e-8, 5.247e-8, 3.745e-8, -1.501e-8, 5.049e-8, 3.767e-8, -1.282e-8
-0.128, 6.569e-8, 4.940e-8, -1.630e-8, 5.152e-8, 3.989e-8, -1.163e-8, 5.362e-8, 3.862e-8, -1.500e-8, 5.078e-8, 3.832e-8, -1.246e-8
-0.132, 6.664e-8, 5.075e-8, -1.588e-8, 5.216e-8, 4.092e-8, -1.124e-8, 5.438e-8, 3.968e-8, -1.471e-8, 5.096e-8, 3.892e-8, -1.204e-8
-0.136, 6.786e-8, 5.192e-8, -1.593e-8, 5.367e-8, 4.228e-8, -1.138e-8, 5.570e-8, 4.107e-8, -1.463e-8, 5.208e-8, 4.017e-8, -1.191e-8
-0.140, 6.970e-8, 5.378e-8, -1.591e-8, 5.466e-8, 4.332e-8, -1.134e-8, 5.740e-8, 4.273e-8, -1.468e-8, 5.276e-8, 4.094e-8, -1.182e-8
-0.144, 7.167e-8, 5.569e-8, -1.598e-8, 5.631e-8, 4.479e-8, -1.152e-8, 5.928e-8, 4.436e-8, -1.492e-8, 5.387e-8, 4.185e-8, -1.202e-8
-0.148, 7.376e-8, 5.768e-8, -1.608e-8, 5.822e-8, 4.647e-8, -1.175e-8, 6.223e-8, 4.668e-8, -1.555e-8, 5.572e-8, 4.361e-8, -1.211e-8
-0.152, 7.793e-8, 6.084e-8, -1.708e-8, 6.117e-8, 4.904e-8, -1.213e-8, 6.550e-8, 4.935e-8, -1.614e-8, 5.729e-8, 4.511e-8, -1.219e-8
-0.156, 8.171e-8, 6.425e-8, -1.746e-8, 6.424e-8, 5.164e-8, -1.260e-8, 6.951e-8, 5.272e-8, -1.679e-8, 6.002e-8, 4.735e-8, -1.267e-8
-0.160, 8.683e-8, 6.879e-8, -1.804e-8, 6.842e-8, 5.543e-8, -1.299e-8, 7.443e-8, 5.706e-8, -1.736e-8, 6.268e-8, 4.996e-8, -1.272e-8
-0.164, 9.369e-8, 7.493e-8, -1.877e-8, 7.364e-8, 6.001e-8, -1.362e-8, 8.088e-8, 6.269e-8, -1.819e-8, 6.695e-8, 5.348e-8, -1.347e-8
-0.168, 1.027e-7, 8.275e-8, -1.990e-8, 8.099e-8, 6.691e-8, -1.408e-8, 9.023e-8, 7.104e-8, -1.919e-8, 7.245e-8, 5.868e-8, -1.377e-8
-0.172, 1.134e-7, 9.249e-8, -2.087e-8, 9.006e-8, 7.498e-8, -1.508e-8, 1.013e-7, 8.065e-8, -2.061e-8, 7.926e-8, 6.475e-8, -1.451e-8
-0.176, 1.290e-7, 1.058e-7, -2.320e-8, 1.027e-7, 8.586e-8, -1.684e-8, 1.163e-7, 9.396e-8, -2.232e-8, 8.880e-8, 7.321e-8, -1.559e-8
-0.180, 1.468e-7, 1.226e-7, -2.418e-8, 1.174e-7, 9.978e-8, -1.766e-8, 1.352e-7, 1.110e-7, -2.421e-8, 1.007e-7, 8.440e-8, -1.629e-8
-0.184, 1.700e-7, 1.442e-7, -2.582e-8, 1.368e-7, 1.180e-7, -1.876e-8, 1.589e-7, 1.333e-7, -2.566e-8, 1.152e-7, 9.815e-8, -1.705e-8
-0.188, 2.000e-7, 1.712e-7, -2.878e-8, 1.630e-7, 1.418e-7, -2.116e-8, 1.903e-7, 1.618e-7, -2.849e-8, 1.345e-7, 1.160e-7, -1.848e-8
-0.192, 2.357e-7, 2.044e-7, -3.132e-8, 1.931e-7, 1.702e-7, -2.293e-8, 2.285e-7, 1.975e-7, -3.095e-8, 1.584e-7, 1.384e-7, -2.000e-8
-0.196, 2.789e-7, 2.443e-7, -3.457e-8, 2.314e-7, 2.060e-7, -2.535e-8, 2.752e-7, 2.408e-7, -3.441e-8, 1.879e-7, 1.661e-7, -2.179e-8
-0.200, 3.292e-7, 2.904e-7, -3.879e-8, 2.756e-7, 2.476e-7, -2.804e-8, 3.300e-7, 2.918e-7, -3.821e-8, 2.223e-7, 1.983e-7, -2.400e-8
-0.204, 3.864e-7, 3.437e-7, -4.271e-8, 3.271e-7, 2.955e-7, -3.151e-8, 3.931e-7, 3.507e-7, -4.238e-8, 2.619e-7, 2.356e-7, -2.628e-8
-0.208, 4.498e-7, 4.019e-7, -4.791e-8, 3.846e-7, 3.488e-7, -3.575e-8, 4.640e-7, 4.166e-7, -4.740e-8, 3.067e-7, 2.775e-7, -2.920e-8
-0.212, 5.175e-7, 4.642e-7, -5.329e-8, 4.470e-7, 4.069e-7, -4.008e-8, 5.402e-7, 4.877e-7, -5.253e-8, 3.549e-7, 3.226e-7, -3.226e-8
-0.216, 5.881e-7, 5.281e-7, -6.004e-8, 5.118e-7, 4.664e-7, -4.545e-8, 6.202e-7, 5.614e-7, -5.887e-8, 4.058e-7, 3.695e-7, -3.621e-8
-0.220, 6.587e-7, 5.915e-7, -6.718e-8, 5.777e-7, 5.263e-7, -5.142e-8, 7.029e-7, 6.369e-7, -6.600e-8, 4.578e-7, 4.171e-7, -4.075e-8
-0.224, 7.283e-7, 6.524e-7, -7.587e-8, 6.436e-7, 5.848e-7, -5.885e-8, 7.848e-7, 7.100e-7, -7.472e-8, 5.093e-7, 4.633e-7, -4.600e-8
-0.228, 7.927e-7, 7.084e-7, -8.434e-8, 7.050e-7, 6.390e-7, -6.599e-8, 8.632e-7, 7.795e-7, -8.371e-8, 5.584e-7, 5.067e-7, -5.173e-8
-0.232, 8.502e-7, 7.551e-7, -9.513e-8, 7.609e-7, 6.856e-7, -7.535e-8, 9.340e-7, 8.395e-7, -9.452e-8, 6.028e-7, 5.443e-7, -5.846e-8
-0.236, 8.984e-7, 7.915e-7, -1.069e-7, 8.087e-7, 7.227e-7, -8.593e-8, 9.965e-7, 8.896e-7, -1.069e-7, 6.411e-7, 5.747e-7, -6.641e-8
-0.240, 9.346e-7, 8.145e-7, -1.201e-7, 8.449e-7, 7.473e-7, -9.761e-8, 1.046e-6, 9.249e-7, -1.214e-7, 6.706e-7, 5.952e-7, -7.542e-8
-0.244, 9.590e-7, 8.238e-7, -1.352e-7, 8.707e-7, 7.593e-7, -1.114e-7, 1.082e-6, 9.447e-7, -1.377e-7, 6.922e-7, 6.066e-7, -8.555e-8
-0.248, 9.688e-7, 8.168e-7, -1.520e-7, 8.827e-7, 7.558e-7, -1.269e-7, 1.103e-6, 9.465e-7, -1.569e-7, 7.025e-7, 6.052e-7, -9.731e-8
-0.252, 9.661e-7, 7.942e-7, -1.719e-7, 8.819e-7, 7.368e-7, -1.451e-7, 1.109e-6, 9.293e-7, -1.799e-7, 7.037e-7, 5.922e-7, -1.116e-7
-0.256, 9.517e-7, 7.573e-7, -1.944e-7, 8.705e-7, 7.041e-7, -1.664e-7, 1.101e-6, 8.942e-7, -2.064e-7, 6.957e-7, 5.679e-7, -1.278e-7
-0.260, 9.279e-7, 7.079e-7, -2.199e-7, 8.499e-7, 6.591e-7, -1.908e-7, 1.080e-6, 8.425e-7, -2.375e-7, 6.802e-7, 5.333e-7, -1.469e-7
-0.264, 8.978e-7, 6.493e-7, -2.485e-7, 8.216e-7, 6.040e-7, -2.176e-7, 1.049e-6, 7.769e-7, -2.718e-7, 6.590e-7, 4.910e-7, -1.679e-7
-0.268, 8.636e-7, 5.847e-7, -2.789e-7, 7.902e-7, 5.427e-7, -2.475e-7, 1.012e-6, 7.018e-7, -3.106e-7, 6.345e-7, 4.429e-7, -1.916e-7
-0.272, 8.294e-7, 5.185e-7, -3.109e-7, 7.580e-7, 4.789e-7, -2.790e-7, 9.737e-7, 6.218e-7, -3.519e-7, 6.094e-7, 3.926e-7, -2.168e-7
-0.276, 7.959e-7, 4.540e-7, -3.419e-7, 7.272e-7, 4.169e-7, -3.104e-7, 9.341e-7, 5.415e-7, -3.926e-7, 5.852e-7, 3.434e-7, -2.418e-7
-0.280, 7.667e-7, 3.953e-7, -3.713e-7, 6.994e-7, 3.595e-7, -3.399e-7, 8.978e-7, 4.664e-7, -4.313e-7, 5.636e-7, 2.977e-7, -2.658e-7
-0.284, 7.388e-7, 3.431e-7, -3.957e-7, 6.741e-7, 3.086e-7, -3.655e-7, 8.632e-7, 3.989e-7, -4.644e-7, 5.428e-7, 2.566e-7, -2.862e-7
-0.288, 7.139e-7, 2.999e-7, -4.139e-7, 6.522e-7, 2.665e-7, -3.857e-7, 8.320e-7, 3.417e-7, -4.903e-7, 5.251e-7, 2.227e-7, -3.024e-7
-0.292, 6.885e-7, 2.644e-7, -4.241e-7, 6.300e-7, 2.322e-7, -3.978e-7, 8.014e-7, 2.950e-7, -5.064e-7, 5.073e-7, 1.947e-7, -3.126e-7
-0.296, 6.611e-7, 2.359e-7, -4.252e-7, 6.066e-7, 2.052e-7, -4.014e-7, 7.691e-7, 2.581e-7, -5.110e-7, 4.886e-7, 1.728e-7, -3.158e-7
-0.300, 6.296e-7, 2.126e-7, -4.171e-7, 5.791e-7, 1.834e-7, -3.957e-7, 7.326e-7, 2.284e-7, -5.042e-7, 4.674e-7, 1.553e-7, -3.121e-7
-0.304, 5.935e-7, 1.935e-7, -4.000e-7, 5.474e-7, 1.663e-7, -3.811e-7, 6.921e-7, 2.053e-7, -4.868e-7, 4.429e-7, 1.415e-7, -3.014e-7
-0.308, 5.532e-7, 1.774e-7, -3.759e-7, 5.109e-7, 1.516e-7, -3.594e-7, 6.456e-7, 1.860e-7, -4.596e-7, 4.146e-7, 1.297e-7, -2.849e-7
-0.312, 5.083e-7, 1.631e-7, -3.452e-7, 4.702e-7, 1.393e-7, -3.309e-7, 5.948e-7, 1.702e-7, -4.245e-7, 3.829e-7, 1.197e-7, -2.632e-7
-0.316, 4.611e-7, 1.514e-7, -3.097e-7, 4.271e-7, 1.294e-7, -2.976e-7, 5.409e-7, 1.572e-7, -3.836e-7, 3.493e-7, 1.119e-7, -2.374e-7
-0.320, 4.127e-7, 1.402e-7, -2.725e-7, 3.819e-7, 1.197e-7, -2.622e-7, 4.847e-7, 1.453e-7, -3.394e-7, 3.146e-7, 1.047e-7, -2.099e-7
-0.324, 3.652e-7, 1.310e-7, -2.341e-7, 3.374e-7, 1.123e-7, -2.251e-7, 4.292e-7, 1.358e-7, -2.934e-7, 2.798e-7, 9.851e-8, -1.812e-7
-0.328, 3.197e-7, 1.222e-7, -1.975e-7, 2.943e-7, 1.046e-7, -1.896e-7, 3.754e-7, 1.266e-7, -2.488e-7, 2.463e-7, 9.292e-8, -1.533e-7
-0.332, 2.768e-7, 1.146e-7, -1.622e-7, 2.544e-7, 9.880e-8, -1.556e-7, 3.250e-7, 1.189e-7, -2.061e-7, 2.144e-7, 8.791e-8, -1.265e-7
-0.336, 2.388e-7, 1.078e-7, -1.311e-7, 2.182e-7, 9.323e-8, -1.250e-7, 2.798e-7, 1.123e-7, -1.675e-7, 1.860e-7, 8.385e-8, -1.022e-7
-0.340, 2.056e-7, 1.022e-7, -1.034e-7, 1.864e-7, 8.874e-8, -9.770e-8, 2.394e-7, 1.067e-7, -1.327e-7, 1.609e-7, 8.032e-8, -8.062e-8
-0.344, 1.776e-7, 9.748e-8, -8.014e-8, 1.602e-7, 8.490e-8, -7.535e-8, 2.054e-7, 1.021e-7, -1.034e-7, 1.396e-7, 7.735e-8, -6.221e-8
-0.348, 1.549e-7, 9.365e-8, -6.128e-8, 1.383e-7, 8.191e-8, -5.644e-8, 1.773e-7, 9.853e-8, -7.881e-8, 1.223e-7, 7.502e-8, -4.728e-8
-0.352, 1.364e-7, 9.042e-8, -4.596e-8, 1.204e-7, 7.945e-8, -4.092e-8, 1.545e-7, 9.542e-8, -5.906e-8, 1.079e-7, 7.329e-8, -3.461e-8
-0.356, 1.222e-7, 8.780e-8, -3.439e-8, 1.069e-7, 7.748e-8, -2.942e-8, 1.371e-7, 9.312e-8, -4.400e-8, 9.663e-8, 7.134e-8, -2.529e-8
-0.360, 1.107e-7, 8.549e-8, -2.523e-8, 9.598e-8, 7.557e-8, -2.041e-8, 1.232e-7, 9.154e-8, -3.164e-8, 8.808e-8, 7.040e-8, -1.768e-8
-0.364, 1.020e-7, 8.375e-8, -1.821e-8, 8.859e-8, 7.492e-8, -1.366e-8, 1.128e-7, 9.025e-8, -2.254e-8, 8.195e-8, 6.969e-8, -1.226e-8
-0.368, 9.548e-8, 8.265e-8, -1.283e-8, 8.249e-8, 7.392e-8, -8.570e-9, 1.055e-7, 9.007e-8, -1.542e-8, 7.716e-8, 6.919e-8, -7.970e-9
-0.372, 9.057e-8, 8.165e-8, -8.922e-9, 7.795e-8, 7.343e-8, -4.518e-9, 1.002e-7, 8.995e-8, -1.026e-8, 7.379e-8, 6.892e-8, -4.862e-9
-0.376, 8.709e-8, 8.110e-8, -5.992e-9, 7.469e-8, 7.315e-8, -1.538e-9, 9.612e-8, 8.980e-8, -6.318e-9, 7.130e-8, 6.887e-8, -2.433e-9
-0.380, 8.493e-8, 8.099e-8, -3.936e-9, 7.307e-8, 7.333e-8, 2.615e-10, 9.356e-8, 9.040e-8, -3.161e-9, 6.965e-8, 6.912e-8, -5.252e-10
-0.384, 8.288e-8, 8.066e-8, -2.225e-9, 7.111e-8, 7.320e-8, 2.091e-9, 9.234e-8, 9.125e-8, -1.096e-9, 6.854e-8, 6.940e-8, 8.614e-10
-0.388, 8.125e-8, 8.069e-8, -5.630e-10, 7.000e-8, 7.378e-8, 3.782e-9, 9.108e-8, 9.232e-8, 1.245e-9, 6.729e-8, 6.961e-8, 2.327e-9
-0.392, 8.115e-8, 8.096e-8, -1.893e-10, 7.008e-8, 7.467e-8, 4.589e-9, 9.091e-8, 9.368e-8, 2.769e-9, 6.754e-8, 7.067e-8, 3.133e-9
-0.396, 7.991e-8, 8.105e-8, 1.138e-9, 6.923e-8, 7.496e-8, 5.729e-9, 9.043e-8, 9.458e-8, 4.156e-9, 6.719e-8, 7.111e-8, 3.920e-9
-0.400, 7.913e-8, 8.153e-8, 2.407e-9, 6.903e-8, 7.560e-8, 6.575e-9, 9.063e-8, 9.618e-8, 5.552e-9, 6.718e-8, 7.186e-8, 4.687e-9
-0.404, 7.920e-8, 8.229e-8, 3.095e-9, 6.946e-8, 7.694e-8, 7.480e-9, 9.149e-8, 9.846e-8, 6.968e-9, 6.786e-8, 7.305e-8, 5.198e-9
-0.408, 7.971e-8, 8.323e-8, 3.528e-9, 7.022e-8, 7.801e-8, 7.795e-9, 9.238e-8, 1.003e-7, 7.873e-9, 6.840e-8, 7.418e-8, 5.779e-9
-0.412, 7.968e-8, 8.399e-8, 4.315e-9, 7.057e-8, 7.917e-8, 8.601e-9, 9.315e-8, 1.023e-7, 9.191e-9, 6.875e-8, 7.528e-8, 6.526e-9
-0.416, 8.023e-8, 8.500e-8, 4.767e-9, 7.120e-8, 8.047e-8, 9.270e-9, 9.406e-8, 1.041e-7, 9.997e-9, 6.891e-8, 7.628e-8, 7.372e-9
-0.420, 8.038e-8, 8.562e-8, 5.249e-9, 7.178e-8, 8.184e-8, 1.006e-8, 9.543e-8, 1.066e-7, 1.112e-8, 6.912e-8, 7.728e-8, 8.168e-9
-0.424, 8.112e-8, 8.719e-8, 6.065e-9, 7.289e-8, 8.360e-8, 1.071e-8, 9.642e-8, 1.090e-7, 1.263e-8, 7.038e-8, 7.897e-8, 8.581e-9
-0.428, 8.171e-8, 8.808e-8, 6.370e-9, 7.357e-8, 8.480e-8, 1.123e-8, 9.779e-8, 1.113e-7, 1.354e-8, 7.100e-8, 8.032e-8, 9.319e-9
-0.432, 8.299e-8, 8.975e-8, 6.763e-9, 7.509e-8, 8.689e-8, 1.180e-8, 9.959e-8, 1.142e-7, 1.458e-8, 7.232e-8, 8.171e-8, 9.388e-9
-0.436, 8.310e-8, 9.080e-8, 7.698e-9, 7.573e-8, 8.808e-8, 1.235e-8, 1.012e-7, 1.169e-7, 1.565e-8, 7.287e-8, 8.287e-8, 9.997e-9
-0.440, 8.412e-8, 9.255e-8, 8.425e-9, 7.689e-8, 9.005e-8, 1.315e-8, 1.026e-7, 1.198e-7, 1.718e-8, 7.365e-8, 8.476e-8, 1.111e-8
-0.444, 8.481e-8, 9.375e-8, 8.937e-9, 7.854e-8, 9.182e-8, 1.328e-8, 1.046e-7, 1.225e-7, 1.787e-8, 7.464e-8, 8.625e-8, 1.161e-8
-0.448, 8.621e-8, 9.537e-8, 9.163e-9, 8.059e-8, 9.421e-8, 1.362e-8, 1.067e-7, 1.256e-7, 1.885e-8, 7.606e-8, 8.823e-8, 1.217e-8
-0.452, 8.671e-8, 9.654e-8, 9.832e-9, 8.115e-8, 9.563e-8, 1.448e-8, 1.083e-7, 1.286e-7, 2.028e-8, 7.675e-8, 8.964e-8, 1.289e-8
-0.456, 8.857e-8, 9.853e-8, 9.960e-9, 8.300e-8, 9.760e-8, 1.460e-8, 1.110e-7, 1.321e-7, 2.117e-8, 7.846e-8, 9.148e-8, 1.303e-8
-0.460, 8.957e-8, 1.002e-7, 1.063e-8, 8.451e-8, 9.949e-8, 1.498e-8, 1.133e-7, 1.358e-7, 2.251e-8, 7.953e-8, 9.318e-8, 1.365e-8
-0.464, 9.052e-8, 1.018e-7, 1.130e-8, 8.479e-8, 1.009e-7, 1.613e-8, 1.150e-7, 1.387e-7, 2.367e-8, 8.054e-8, 9.495e-8, 1.440e-8
-0.468, 9.124e-8, 1.032e-7, 1.193e-8, 8.666e-8, 1.029e-7, 1.621e-8, 1.178e-7, 1.426e-7, 2.476e-8, 8.225e-8, 9.709e-8, 1.484e-8
-0.472, 9.228e-8, 1.048e-7, 1.248e-8, 8.727e-8, 1.043e-7, 1.702e-8, 1.206e-7, 1.464e-7, 2.576e-8, 8.306e-8, 9.860e-8, 1.554e-8
-0.476, 9.327e-8, 1.059e-7, 1.267e-8, 8.857e-8, 1.059e-7, 1.729e-8, 1.234e-7, 1.499e-7, 2.652e-8, 8.445e-8, 1.008e-7, 1.632e-8
-0.480, 9.451e-8, 1.081e-7, 1.360e-8, 8.988e-8, 1.078e-7, 1.795e-8, 1.263e-7, 1.544e-7, 2.803e-8, 8.589e-8, 1.027e-7, 1.682e-8
-0.484, 9.534e-8, 1.097e-7, 1.439e-8, 9.032e-8, 1.093e-7, 1.894e-8, 1.286e-7, 1.584e-7, 2.978e-8, 8.664e-8, 1.047e-7, 1.808e-8
-0.488, 9.660e-8, 1.117e-7, 1.508e-8, 9.143e-8, 1.110e-7, 1.954e-8, 1.318e-7, 1.627e-7, 3.090e-8, 8.847e-8, 1.071e-7, 1.867e-8
-0.492, 9.821e-8, 1.135e-7, 1.532e-8, 9.277e-8, 1.128e-7, 2.003e-8, 1.358e-7, 1.677e-7, 3.194e-8, 9.014e-8, 1.091e-7, 1.899e-8
-0.496, 9.957e-8, 1.158e-7, 1.621e-8, 9.418e-8, 1.148e-7, 2.062e-8, 1.395e-7, 1.729e-7, 3.338e-8, 9.191e-8, 1.119e-7, 1.999e-8
-0.500, 1.009e-7, 1.178e-7, 1.686e-8, 9.520e-8, 1.169e-7, 2.168e-8, 1.433e-7, 1.780e-7, 3.470e-8, 9.357e-8, 1.142e-7, 2.061e-8
