Sept. 28, 2023   15:16:54
Square Wave Voltammetry
File: c:\users\biose\documents\heatherl\epbp\09282023\frequencyscan\100_100_3.txt
Data Source:  Experiment
Instrument Model:  CHI1040C
Header: 
Note: 

Init E (V) = 0
Final E (V) = -0.7
Incr E (V) = 0.004
Amplitude (V) = 0.05
Frequency (Hz) = 100
Quiet Time (sec) = 2
Sensitivity (A/V) = 1e-5

E2 Scan On
Sens 2 = 1e-005

Results:

Channel 1:
Difference:

Forward:

Reverse:

Channel 2:
Difference:

Forward:

Reverse:

Potential/V, i1d/A, i1f/A, i1r/A, i2d/A, i2f/A, i2r/A

-0.004, 7.386e-6, 1.382e-6, -6.003e-6, 8.808e-6, 1.600e-6, -7.208e-6
-0.008, 1.015e-5, 4.641e-6, -5.506e-6, 1.229e-5, 5.669e-6, -6.622e-6
-0.012, 9.940e-6, 4.666e-6, -5.274e-6, 1.205e-5, 5.691e-6, -6.358e-6
-0.016, 9.674e-6, 4.605e-6, -5.069e-6, 1.175e-5, 5.623e-6, -6.130e-6
-0.020, 9.437e-6, 4.527e-6, -4.910e-6, 1.147e-5, 5.526e-6, -5.944e-6
-0.024, 9.198e-6, 4.455e-6, -4.743e-6, 1.120e-5, 5.441e-6, -5.761e-6
-0.028, 8.964e-6, 4.374e-6, -4.590e-6, 1.094e-5, 5.353e-6, -5.587e-6
-0.032, 8.750e-6, 4.294e-6, -4.455e-6, 1.069e-5, 5.257e-6, -5.433e-6
-0.036, 8.535e-6, 4.220e-6, -4.316e-6, 1.045e-5, 5.176e-6, -5.278e-6
-0.040, 8.350e-6, 4.150e-6, -4.200e-6, 1.023e-5, 5.091e-6, -5.140e-6
-0.044, 8.177e-6, 4.095e-6, -4.082e-6, 1.004e-5, 5.023e-6, -5.012e-6
-0.048, 7.997e-6, 4.026e-6, -3.971e-6, 9.829e-6, 4.949e-6, -4.879e-6
-0.052, 7.845e-6, 3.969e-6, -3.876e-6, 9.648e-6, 4.877e-6, -4.771e-6
-0.056, 7.678e-6, 3.911e-6, -3.767e-6, 9.466e-6, 4.814e-6, -4.652e-6
-0.060, 7.549e-6, 3.860e-6, -3.689e-6, 9.308e-6, 4.750e-6, -4.558e-6
-0.064, 7.420e-6, 3.818e-6, -3.601e-6, 9.165e-6, 4.701e-6, -4.464e-6
-0.068, 7.288e-6, 3.770e-6, -3.518e-6, 9.013e-6, 4.649e-6, -4.364e-6
-0.072, 7.179e-6, 3.727e-6, -3.452e-6, 8.878e-6, 4.592e-6, -4.286e-6
-0.076, 7.058e-6, 3.688e-6, -3.370e-6, 8.748e-6, 4.551e-6, -4.197e-6
-0.080, 6.968e-6, 3.652e-6, -3.317e-6, 8.629e-6, 4.501e-6, -4.128e-6
-0.084, 6.878e-6, 3.626e-6, -3.253e-6, 8.528e-6, 4.468e-6, -4.059e-6
-0.088, 6.775e-6, 3.586e-6, -3.189e-6, 8.411e-6, 4.426e-6, -3.985e-6
-0.092, 6.704e-6, 3.561e-6, -3.144e-6, 8.319e-6, 4.389e-6, -3.930e-6
-0.096, 6.613e-6, 3.533e-6, -3.080e-6, 8.217e-6, 4.359e-6, -3.859e-6
-0.100, 6.555e-6, 3.509e-6, -3.046e-6, 8.139e-6, 4.326e-6, -3.813e-6
-0.104, 6.492e-6, 3.494e-6, -2.997e-6, 8.062e-6, 4.303e-6, -3.759e-6
-0.108, 6.424e-6, 3.471e-6, -2.953e-6, 7.981e-6, 4.276e-6, -3.705e-6
-0.112, 6.375e-6, 3.454e-6, -2.920e-6, 7.910e-6, 4.247e-6, -3.663e-6
-0.116, 6.306e-6, 3.434e-6, -2.872e-6, 7.839e-6, 4.226e-6, -3.613e-6
-0.120, 6.270e-6, 3.422e-6, -2.848e-6, 7.780e-6, 4.203e-6, -3.577e-6
-0.124, 6.228e-6, 3.414e-6, -2.815e-6, 7.730e-6, 4.189e-6, -3.541e-6
-0.128, 6.182e-6, 3.401e-6, -2.781e-6, 7.669e-6, 4.173e-6, -3.496e-6
-0.132, 6.152e-6, 3.392e-6, -2.760e-6, 7.620e-6, 4.153e-6, -3.467e-6
-0.136, 6.112e-6, 3.386e-6, -2.726e-6, 7.572e-6, 4.142e-6, -3.431e-6
-0.140, 6.094e-6, 3.380e-6, -2.714e-6, 7.530e-6, 4.125e-6, -3.406e-6
-0.144, 6.067e-6, 3.380e-6, -2.687e-6, 7.496e-6, 4.119e-6, -3.378e-6
-0.148, 6.041e-6, 3.375e-6, -2.666e-6, 7.455e-6, 4.109e-6, -3.346e-6
-0.152, 6.028e-6, 3.374e-6, -2.654e-6, 7.424e-6, 4.097e-6, -3.328e-6
-0.156, 6.003e-6, 3.374e-6, -2.628e-6, 7.391e-6, 4.094e-6, -3.297e-6
-0.160, 5.997e-6, 3.373e-6, -2.624e-6, 7.361e-6, 4.081e-6, -3.280e-6
-0.164, 5.992e-6, 3.384e-6, -2.607e-6, 7.347e-6, 4.085e-6, -3.263e-6
-0.168, 5.976e-6, 3.386e-6, -2.590e-6, 7.313e-6, 4.079e-6, -3.234e-6
-0.172, 5.983e-6, 3.396e-6, -2.587e-6, 7.298e-6, 4.074e-6, -3.224e-6
-0.176, 5.965e-6, 3.399e-6, -2.567e-6, 7.275e-6, 4.074e-6, -3.202e-6
-0.180, 5.978e-6, 3.407e-6, -2.571e-6, 7.261e-6, 4.068e-6, -3.193e-6
-0.184, 5.981e-6, 3.421e-6, -2.559e-6, 7.252e-6, 4.074e-6, -3.178e-6
-0.188, 5.984e-6, 3.432e-6, -2.552e-6, 7.237e-6, 4.076e-6, -3.160e-6
-0.192, 5.999e-6, 3.445e-6, -2.554e-6, 7.228e-6, 4.074e-6, -3.154e-6
-0.196, 5.996e-6, 3.455e-6, -2.541e-6, 7.216e-6, 4.079e-6, -3.137e-6
-0.200, 6.018e-6, 3.470e-6, -2.548e-6, 7.210e-6, 4.079e-6, -3.131e-6
-0.204, 6.035e-6, 3.492e-6, -2.543e-6, 7.213e-6, 4.090e-6, -3.123e-6
-0.208, 6.040e-6, 3.503e-6, -2.537e-6, 7.197e-6, 4.093e-6, -3.105e-6
-0.212, 6.064e-6, 3.520e-6, -2.544e-6, 7.200e-6, 4.093e-6, -3.106e-6
-0.216, 6.072e-6, 3.536e-6, -2.536e-6, 7.192e-6, 4.102e-6, -3.090e-6
-0.220, 6.103e-6, 3.555e-6, -2.548e-6, 7.191e-6, 4.105e-6, -3.086e-6
-0.224, 6.123e-6, 3.579e-6, -2.543e-6, 7.196e-6, 4.116e-6, -3.080e-6
-0.228, 6.137e-6, 3.594e-6, -2.543e-6, 7.188e-6, 4.122e-6, -3.067e-6
-0.232, 6.166e-6, 3.614e-6, -2.552e-6, 7.193e-6, 4.126e-6, -3.068e-6
-0.236, 6.170e-6, 3.627e-6, -2.543e-6, 7.183e-6, 4.131e-6, -3.052e-6
-0.240, 6.203e-6, 3.646e-6, -2.557e-6, 7.188e-6, 4.136e-6, -3.052e-6
-0.244, 6.225e-6, 3.672e-6, -2.553e-6, 7.195e-6, 4.149e-6, -3.045e-6
-0.248, 6.239e-6, 3.686e-6, -2.552e-6, 7.187e-6, 4.156e-6, -3.032e-6
-0.252, 6.264e-6, 3.705e-6, -2.559e-6, 7.189e-6, 4.160e-6, -3.029e-6
-0.256, 6.263e-6, 3.716e-6, -2.546e-6, 7.178e-6, 4.166e-6, -3.012e-6
-0.260, 6.292e-6, 3.735e-6, -2.556e-6, 7.182e-6, 4.172e-6, -3.010e-6
-0.264, 6.304e-6, 3.755e-6, -2.549e-6, 7.186e-6, 4.186e-6, -3.000e-6
-0.268, 6.312e-6, 3.766e-6, -2.546e-6, 7.180e-6, 4.191e-6, -2.989e-6
-0.272, 6.327e-6, 3.783e-6, -2.543e-6, 7.178e-6, 4.197e-6, -2.981e-6
-0.276, 6.317e-6, 3.792e-6, -2.525e-6, 7.166e-6, 4.204e-6, -2.961e-6
-0.280, 6.338e-6, 3.807e-6, -2.530e-6, 7.167e-6, 4.211e-6, -2.956e-6
-0.284, 6.345e-6, 3.831e-6, -2.515e-6, 7.175e-6, 4.230e-6, -2.945e-6
-0.288, 6.336e-6, 3.839e-6, -2.498e-6, 7.161e-6, 4.239e-6, -2.923e-6
-0.292, 6.345e-6, 3.854e-6, -2.492e-6, 7.163e-6, 4.245e-6, -2.918e-6
-0.296, 6.327e-6, 3.862e-6, -2.465e-6, 7.150e-6, 4.256e-6, -2.894e-6
-0.300, 6.334e-6, 3.873e-6, -2.461e-6, 7.151e-6, 4.264e-6, -2.887e-6
-0.304, 6.335e-6, 3.896e-6, -2.440e-6, 7.157e-6, 4.284e-6, -2.873e-6
-0.308, 6.322e-6, 3.906e-6, -2.416e-6, 7.146e-6, 4.296e-6, -2.849e-6
-0.312, 6.323e-6, 3.925e-6, -2.398e-6, 7.147e-6, 4.309e-6, -2.838e-6
-0.316, 6.304e-6, 3.938e-6, -2.366e-6, 7.142e-6, 4.327e-6, -2.814e-6
-0.320, 6.306e-6, 3.957e-6, -2.349e-6, 7.142e-6, 4.342e-6, -2.800e-6
-0.324, 6.306e-6, 3.983e-6, -2.323e-6, 7.157e-6, 4.369e-6, -2.788e-6
-0.328, 6.290e-6, 3.996e-6, -2.294e-6, 7.148e-6, 4.385e-6, -2.763e-6
-0.332, 6.297e-6, 4.021e-6, -2.275e-6, 7.157e-6, 4.403e-6, -2.754e-6
-0.336, 6.272e-6, 4.040e-6, -2.233e-6, 7.150e-6, 4.427e-6, -2.723e-6
-0.340, 6.286e-6, 4.066e-6, -2.220e-6, 7.163e-6, 4.448e-6, -2.715e-6
-0.344, 6.285e-6, 4.101e-6, -2.185e-6, 7.176e-6, 4.481e-6, -2.695e-6
-0.348, 6.279e-6, 4.124e-6, -2.155e-6, 7.179e-6, 4.507e-6, -2.672e-6
-0.352, 6.282e-6, 4.153e-6, -2.129e-6, 7.188e-6, 4.531e-6, -2.656e-6
-0.356, 6.267e-6, 4.180e-6, -2.087e-6, 7.190e-6, 4.561e-6, -2.629e-6
-0.360, 6.283e-6, 4.214e-6, -2.069e-6, 7.203e-6, 4.588e-6, -2.616e-6
-0.364, 6.291e-6, 4.256e-6, -2.036e-6, 7.226e-6, 4.628e-6, -2.598e-6
-0.368, 6.290e-6, 4.286e-6, -2.004e-6, 7.232e-6, 4.659e-6, -2.573e-6
-0.372, 6.303e-6, 4.324e-6, -1.979e-6, 7.248e-6, 4.687e-6, -2.561e-6
-0.376, 6.296e-6, 4.360e-6, -1.936e-6, 7.259e-6, 4.727e-6, -2.532e-6
-0.380, 6.324e-6, 4.404e-6, -1.920e-6, 7.283e-6, 4.764e-6, -2.519e-6
-0.384, 6.328e-6, 4.446e-6, -1.882e-6, 7.305e-6, 4.806e-6, -2.499e-6
-0.388, 6.336e-6, 4.488e-6, -1.848e-6, 7.319e-6, 4.847e-6, -2.472e-6
-0.392, 6.357e-6, 4.535e-6, -1.822e-6, 7.342e-6, 4.885e-6, -2.457e-6
-0.396, 6.353e-6, 4.573e-6, -1.780e-6, 7.354e-6, 4.926e-6, -2.429e-6
-0.400, 6.384e-6, 4.623e-6, -1.761e-6, 7.382e-6, 4.968e-6, -2.414e-6
-0.404, 6.400e-6, 4.674e-6, -1.725e-6, 7.412e-6, 5.018e-6, -2.394e-6
-0.408, 6.411e-6, 4.720e-6, -1.692e-6, 7.431e-6, 5.063e-6, -2.368e-6
-0.412, 6.434e-6, 4.770e-6, -1.664e-6, 7.455e-6, 5.105e-6, -2.350e-6
-0.416, 6.436e-6, 4.814e-6, -1.622e-6, 7.473e-6, 5.151e-6, -2.322e-6
-0.420, 6.469e-6, 4.869e-6, -1.600e-6, 7.504e-6, 5.198e-6, -2.306e-6
-0.424, 6.494e-6, 4.927e-6, -1.568e-6, 7.541e-6, 5.253e-6, -2.287e-6
-0.428, 6.510e-6, 4.975e-6, -1.535e-6, 7.564e-6, 5.302e-6, -2.261e-6
-0.432, 6.539e-6, 5.033e-6, -1.507e-6, 7.593e-6, 5.352e-6, -2.241e-6
-0.436, 6.544e-6, 5.081e-6, -1.463e-6, 7.616e-6, 5.403e-6, -2.214e-6
-0.440, 6.577e-6, 5.136e-6, -1.442e-6, 7.645e-6, 5.451e-6, -2.194e-6
-0.444, 6.605e-6, 5.198e-6, -1.407e-6, 7.689e-6, 5.513e-6, -2.176e-6
-0.448, 6.625e-6, 5.253e-6, -1.372e-6, 7.712e-6, 5.566e-6, -2.146e-6
-0.452, 6.660e-6, 5.311e-6, -1.349e-6, 7.751e-6, 5.620e-6, -2.131e-6
-0.456, 6.664e-6, 5.363e-6, -1.301e-6, 7.769e-6, 5.674e-6, -2.096e-6
-0.460, 6.704e-6, 5.420e-6, -1.284e-6, 7.810e-6, 5.727e-6, -2.083e-6
-0.464, 6.734e-6, 5.485e-6, -1.249e-6, 7.851e-6, 5.790e-6, -2.061e-6
-0.468, 6.753e-6, 5.540e-6, -1.213e-6, 7.880e-6, 5.848e-6, -2.032e-6
-0.472, 6.791e-6, 5.602e-6, -1.189e-6, 7.920e-6, 5.904e-6, -2.016e-6
-0.476, 6.800e-6, 5.653e-6, -1.147e-6, 7.944e-6, 5.959e-6, -1.985e-6
-0.480, 6.844e-6, 5.716e-6, -1.127e-6, 7.985e-6, 6.018e-6, -1.967e-6
-0.484, 6.876e-6, 5.781e-6, -1.095e-6, 8.031e-6, 6.083e-6, -1.948e-6
-0.488, 6.898e-6, 5.839e-6, -1.060e-6, 8.059e-6, 6.143e-6, -1.916e-6
-0.492, 6.938e-6, 5.902e-6, -1.037e-6, 8.103e-6, 6.201e-6, -1.902e-6
-0.496, 6.949e-6, 5.957e-6, -9.925e-7, 8.131e-6, 6.262e-6, -1.869e-6
-0.500, 6.998e-6, 6.021e-6, -9.777e-7, 8.178e-6, 6.321e-6, -1.857e-6
-0.504, 7.029e-6, 6.087e-6, -9.420e-7, 8.226e-6, 6.390e-6, -1.836e-6
-0.508, 7.056e-6, 6.145e-6, -9.115e-7, 8.258e-6, 6.450e-6, -1.808e-6
-0.512, 7.097e-6, 6.212e-6, -8.857e-7, 8.300e-6, 6.513e-6, -1.787e-6
-0.516, 7.119e-6, 6.270e-6, -8.489e-7, 8.339e-6, 6.578e-6, -1.761e-6
-0.520, 7.163e-6, 6.335e-6, -8.279e-7, 8.381e-6, 6.640e-6, -1.742e-6
-0.524, 7.206e-6, 6.406e-6, -7.999e-7, 8.442e-6, 6.715e-6, -1.727e-6
-0.528, 7.234e-6, 6.468e-6, -7.661e-7, 8.478e-6, 6.782e-6, -1.696e-6
-0.532, 7.277e-6, 6.534e-6, -7.436e-7, 8.526e-6, 6.846e-6, -1.680e-6
-0.536, 7.300e-6, 6.594e-6, -7.061e-7, 8.563e-6, 6.913e-6, -1.650e-6
-0.540, 7.356e-6, 6.662e-6, -6.934e-7, 8.619e-6, 6.980e-6, -1.639e-6
-0.544, 7.398e-6, 6.737e-6, -6.610e-7, 8.675e-6, 7.058e-6, -1.618e-6
-0.548, 7.432e-6, 6.798e-6, -6.341e-7, 8.717e-6, 7.126e-6, -1.592e-6
-0.552, 7.481e-6, 6.870e-6, -6.117e-7, 8.775e-6, 7.197e-6, -1.578e-6
-0.556, 7.511e-6, 6.934e-6, -5.768e-7, 8.823e-6, 7.272e-6, -1.551e-6
-0.560, 7.566e-6, 7.003e-6, -5.631e-7, 8.877e-6, 7.341e-6, -1.536e-6
-0.564, 7.619e-6, 7.083e-6, -5.358e-7, 8.946e-6, 7.427e-6, -1.519e-6
-0.568, 7.659e-6, 7.148e-6, -5.110e-7, 8.995e-6, 7.500e-6, -1.495e-6
-0.572, 7.719e-6, 7.225e-6, -4.933e-7, 9.061e-6, 7.579e-6, -1.482e-6
-0.576, 7.748e-6, 7.290e-6, -4.589e-7, 9.110e-6, 7.654e-6, -1.456e-6
-0.580, 7.812e-6, 7.365e-6, -4.472e-7, 9.176e-6, 7.731e-6, -1.444e-6
-0.584, 7.864e-6, 7.443e-6, -4.212e-7, 9.246e-6, 7.818e-6, -1.428e-6
-0.588, 7.914e-6, 7.515e-6, -3.989e-7, 9.306e-6, 7.901e-6, -1.405e-6
-0.592, 7.978e-6, 7.595e-6, -3.827e-7, 9.378e-6, 7.983e-6, -1.395e-6
-0.596, 8.019e-6, 7.666e-6, -3.533e-7, 9.438e-6, 8.067e-6, -1.371e-6
-0.600, 8.089e-6, 7.743e-6, -3.459e-7, 9.510e-6, 8.149e-6, -1.361e-6
-0.604, 8.156e-6, 7.830e-6, -3.255e-7, 9.596e-6, 8.245e-6, -1.350e-6
-0.608, 8.208e-6, 7.905e-6, -3.024e-7, 9.660e-6, 8.334e-6, -1.326e-6
-0.612, 8.280e-6, 7.990e-6, -2.902e-7, 9.743e-6, 8.423e-6, -1.320e-6
-0.616, 8.325e-6, 8.063e-6, -2.626e-7, 9.808e-6, 8.513e-6, -1.294e-6
-0.620, 8.411e-6, 8.151e-6, -2.601e-7, 9.900e-6, 8.608e-6, -1.292e-6
-0.624, 8.481e-6, 8.240e-6, -2.415e-7, 9.992e-6, 8.710e-6, -1.282e-6
-0.628, 8.548e-6, 8.321e-6, -2.273e-7, 1.007e-5, 8.807e-6, -1.263e-6
-0.632, 8.625e-6, 8.410e-6, -2.150e-7, 1.016e-5, 8.902e-6, -1.256e-6
-0.636, 8.682e-6, 8.490e-6, -1.918e-7, 1.024e-5, 9.002e-6, -1.237e-6
-0.640, 8.772e-6, 8.583e-6, -1.888e-7, 1.034e-5, 9.105e-6, -1.233e-6
-0.644, 8.854e-6, 8.677e-6, -1.768e-7, 1.044e-5, 9.216e-6, -1.228e-6
-0.648, 8.927e-6, 8.763e-6, -1.636e-7, 1.053e-5, 9.319e-6, -1.210e-6
-0.652, 9.025e-6, 8.864e-6, -1.603e-7, 1.064e-5, 9.432e-6, -1.211e-6
-0.656, 9.085e-6, 8.948e-6, -1.368e-7, 1.073e-5, 9.538e-6, -1.189e-6
-0.660, 9.188e-6, 9.047e-6, -1.413e-7, 1.084e-5, 9.647e-6, -1.191e-6
-0.664, 9.277e-6, 9.150e-6, -1.277e-7, 1.095e-5, 9.768e-6, -1.184e-6
-0.668, 9.368e-6, 9.244e-6, -1.234e-7, 1.106e-5, 9.882e-6, -1.177e-6
-0.672, 9.471e-6, 9.352e-6, -1.189e-7, 1.118e-5, 1.001e-5, -1.176e-6
-0.676, 9.551e-6, 9.447e-6, -1.041e-7, 1.129e-5, 1.013e-5, -1.163e-6
-0.680, 9.663e-6, 9.552e-6, -1.111e-7, 1.141e-5, 1.024e-5, -1.165e-6
-0.684, 9.771e-6, 9.664e-6, -1.069e-7, 1.155e-5, 1.038e-5, -1.167e-6
-0.688, 9.875e-6, 9.772e-6, -1.036e-7, 1.167e-5, 1.051e-5, -1.161e-6
-0.692, 9.991e-6, 9.885e-6, -1.062e-7, 1.180e-5, 1.064e-5, -1.164e-6
-0.696, 1.009e-5, 9.992e-6, -9.346e-8, 1.193e-5, 1.077e-5, -1.154e-6
-0.700, 1.022e-5, 1.011e-5, -1.082e-7, 1.207e-5, 1.091e-5, -1.162e-6
