Sept. 28, 2023   15:16:40
Square Wave Voltammetry
File: c:\users\biose\documents\heatherl\epbp\09282023\frequencyscan\100_100_1.txt
Data Source:  Experiment
Instrument Model:  CHI1040C
Header: 
Note: 

Init E (V) = 0
Final E (V) = -0.7
Incr E (V) = 0.004
Amplitude (V) = 0.05
Frequency (Hz) = 100
Quiet Time (sec) = 2
Sensitivity (A/V) = 1e-5

E2 Scan On
Sens 2 = 1e-005

Results:

Channel 1:
Difference:

Forward:

Reverse:

Channel 2:
Difference:

Forward:

Reverse:

Potential/V, i1d/A, i1f/A, i1r/A, i2d/A, i2f/A, i2r/A

-0.004, 6.353e-6, 1.179e-6, -5.174e-6, 7.653e-6, 1.379e-6, -6.274e-6
-0.008, 8.727e-6, 3.987e-6, -4.741e-6, 1.070e-5, 4.929e-6, -5.770e-6
-0.012, 8.527e-6, 4.002e-6, -4.525e-6, 1.048e-5, 4.953e-6, -5.523e-6
-0.016, 8.302e-6, 3.949e-6, -4.354e-6, 1.021e-5, 4.883e-6, -5.327e-6
-0.020, 8.069e-6, 3.876e-6, -4.194e-6, 9.952e-6, 4.802e-6, -5.150e-6
-0.024, 7.860e-6, 3.800e-6, -4.061e-6, 9.702e-6, 4.713e-6, -4.989e-6
-0.028, 7.665e-6, 3.743e-6, -3.923e-6, 9.479e-6, 4.640e-6, -4.839e-6
-0.032, 7.464e-6, 3.667e-6, -3.797e-6, 9.248e-6, 4.558e-6, -4.691e-6
-0.036, 7.293e-6, 3.605e-6, -3.688e-6, 9.041e-6, 4.477e-6, -4.564e-6
-0.040, 7.113e-6, 3.545e-6, -3.568e-6, 8.843e-6, 4.411e-6, -4.432e-6
-0.044, 6.964e-6, 3.484e-6, -3.480e-6, 8.663e-6, 4.339e-6, -4.324e-6
-0.048, 6.815e-6, 3.439e-6, -3.376e-6, 8.491e-6, 4.282e-6, -4.209e-6
-0.052, 6.664e-6, 3.379e-6, -3.285e-6, 8.319e-6, 4.217e-6, -4.101e-6
-0.056, 6.543e-6, 3.335e-6, -3.208e-6, 8.167e-6, 4.157e-6, -4.011e-6
-0.060, 6.410e-6, 3.290e-6, -3.120e-6, 8.025e-6, 4.109e-6, -3.916e-6
-0.064, 6.305e-6, 3.245e-6, -3.060e-6, 7.889e-6, 4.054e-6, -3.834e-6
-0.068, 6.208e-6, 3.220e-6, -2.989e-6, 7.777e-6, 4.018e-6, -3.760e-6
-0.072, 6.095e-6, 3.176e-6, -2.918e-6, 7.646e-6, 3.969e-6, -3.676e-6
-0.076, 6.010e-6, 3.145e-6, -2.865e-6, 7.538e-6, 3.927e-6, -3.611e-6
-0.080, 5.911e-6, 3.113e-6, -2.798e-6, 7.433e-6, 3.893e-6, -3.539e-6
-0.084, 5.845e-6, 3.084e-6, -2.761e-6, 7.341e-6, 3.855e-6, -3.486e-6
-0.088, 5.775e-6, 3.068e-6, -2.706e-6, 7.256e-6, 3.829e-6, -3.427e-6
-0.092, 5.698e-6, 3.043e-6, -2.656e-6, 7.167e-6, 3.800e-6, -3.367e-6
-0.096, 5.643e-6, 3.022e-6, -2.621e-6, 7.088e-6, 3.767e-6, -3.321e-6
-0.100, 5.579e-6, 3.006e-6, -2.573e-6, 7.022e-6, 3.751e-6, -3.271e-6
-0.104, 5.538e-6, 2.987e-6, -2.551e-6, 6.956e-6, 3.722e-6, -3.234e-6
-0.108, 5.490e-6, 2.981e-6, -2.509e-6, 6.902e-6, 3.710e-6, -3.192e-6
-0.112, 5.441e-6, 2.966e-6, -2.475e-6, 6.838e-6, 3.691e-6, -3.147e-6
-0.116, 5.412e-6, 2.954e-6, -2.458e-6, 6.788e-6, 3.668e-6, -3.120e-6
-0.120, 5.367e-6, 2.946e-6, -2.420e-6, 6.738e-6, 3.659e-6, -3.079e-6
-0.124, 5.349e-6, 2.939e-6, -2.410e-6, 6.699e-6, 3.642e-6, -3.057e-6
-0.128, 5.325e-6, 2.944e-6, -2.381e-6, 6.666e-6, 3.640e-6, -3.027e-6
-0.132, 5.295e-6, 2.935e-6, -2.360e-6, 6.625e-6, 3.628e-6, -2.997e-6
-0.136, 5.280e-6, 2.934e-6, -2.346e-6, 6.592e-6, 3.616e-6, -2.976e-6
-0.140, 5.258e-6, 2.937e-6, -2.321e-6, 6.567e-6, 3.617e-6, -2.950e-6
-0.144, 5.259e-6, 2.938e-6, -2.321e-6, 6.543e-6, 3.608e-6, -2.935e-6
-0.148, 5.253e-6, 2.951e-6, -2.302e-6, 6.528e-6, 3.612e-6, -2.916e-6
-0.152, 5.239e-6, 2.951e-6, -2.287e-6, 6.501e-6, 3.610e-6, -2.891e-6
-0.156, 5.246e-6, 2.960e-6, -2.285e-6, 6.490e-6, 3.606e-6, -2.884e-6
-0.160, 5.236e-6, 2.970e-6, -2.267e-6, 6.475e-6, 3.613e-6, -2.862e-6
-0.164, 5.253e-6, 2.979e-6, -2.275e-6, 6.471e-6, 3.613e-6, -2.859e-6
-0.168, 5.261e-6, 2.998e-6, -2.262e-6, 6.469e-6, 3.624e-6, -2.846e-6
-0.172, 5.265e-6, 3.006e-6, -2.258e-6, 6.459e-6, 3.627e-6, -2.832e-6
-0.176, 5.284e-6, 3.024e-6, -2.260e-6, 6.455e-6, 3.630e-6, -2.825e-6
-0.180, 5.293e-6, 3.039e-6, -2.254e-6, 6.458e-6, 3.641e-6, -2.817e-6
-0.184, 5.321e-6, 3.055e-6, -2.266e-6, 6.459e-6, 3.644e-6, -2.816e-6
-0.188, 5.344e-6, 3.084e-6, -2.260e-6, 6.472e-6, 3.663e-6, -2.809e-6
-0.192, 5.357e-6, 3.097e-6, -2.260e-6, 6.470e-6, 3.671e-6, -2.799e-6
-0.196, 5.391e-6, 3.121e-6, -2.270e-6, 6.480e-6, 3.679e-6, -2.802e-6
-0.200, 5.407e-6, 3.141e-6, -2.266e-6, 6.488e-6, 3.694e-6, -2.793e-6
-0.204, 5.448e-6, 3.165e-6, -2.283e-6, 6.502e-6, 3.705e-6, -2.797e-6
-0.208, 5.481e-6, 3.197e-6, -2.284e-6, 6.519e-6, 3.723e-6, -2.796e-6
-0.212, 5.504e-6, 3.216e-6, -2.288e-6, 6.525e-6, 3.736e-6, -2.789e-6
-0.216, 5.543e-6, 3.243e-6, -2.300e-6, 6.538e-6, 3.746e-6, -2.792e-6
-0.220, 5.568e-6, 3.268e-6, -2.301e-6, 6.554e-6, 3.764e-6, -2.790e-6
-0.224, 5.612e-6, 3.292e-6, -2.320e-6, 6.572e-6, 3.776e-6, -2.796e-6
-0.228, 5.651e-6, 3.327e-6, -2.324e-6, 6.594e-6, 3.798e-6, -2.796e-6
-0.232, 5.674e-6, 3.347e-6, -2.326e-6, 6.599e-6, 3.812e-6, -2.787e-6
-0.236, 5.719e-6, 3.376e-6, -2.342e-6, 6.618e-6, 3.824e-6, -2.794e-6
-0.240, 5.743e-6, 3.402e-6, -2.340e-6, 6.635e-6, 3.847e-6, -2.788e-6
-0.244, 5.788e-6, 3.427e-6, -2.361e-6, 6.653e-6, 3.857e-6, -2.796e-6
-0.248, 5.824e-6, 3.462e-6, -2.362e-6, 6.677e-6, 3.882e-6, -2.795e-6
-0.252, 5.848e-6, 3.481e-6, -2.366e-6, 6.686e-6, 3.897e-6, -2.789e-6
-0.256, 5.882e-6, 3.507e-6, -2.376e-6, 6.701e-6, 3.910e-6, -2.790e-6
-0.260, 5.904e-6, 3.531e-6, -2.372e-6, 6.717e-6, 3.932e-6, -2.784e-6
-0.264, 5.940e-6, 3.554e-6, -2.386e-6, 6.729e-6, 3.944e-6, -2.785e-6
-0.268, 5.971e-6, 3.586e-6, -2.385e-6, 6.757e-6, 3.970e-6, -2.787e-6
-0.272, 5.985e-6, 3.605e-6, -2.380e-6, 6.761e-6, 3.987e-6, -2.774e-6
-0.276, 6.011e-6, 3.628e-6, -2.383e-6, 6.775e-6, 4.000e-6, -2.775e-6
-0.280, 6.019e-6, 3.650e-6, -2.369e-6, 6.789e-6, 4.025e-6, -2.764e-6
-0.284, 6.044e-6, 3.671e-6, -2.373e-6, 6.800e-6, 4.039e-6, -2.761e-6
-0.288, 6.064e-6, 3.703e-6, -2.361e-6, 6.825e-6, 4.069e-6, -2.756e-6
-0.292, 6.075e-6, 3.726e-6, -2.349e-6, 6.836e-6, 4.093e-6, -2.743e-6
-0.296, 6.093e-6, 3.750e-6, -2.343e-6, 6.845e-6, 4.108e-6, -2.737e-6
-0.300, 6.092e-6, 3.774e-6, -2.318e-6, 6.857e-6, 4.136e-6, -2.721e-6
-0.304, 6.109e-6, 3.796e-6, -2.313e-6, 6.870e-6, 4.154e-6, -2.716e-6
-0.308, 6.126e-6, 3.834e-6, -2.293e-6, 6.898e-6, 4.190e-6, -2.708e-6
-0.312, 6.125e-6, 3.855e-6, -2.270e-6, 6.904e-6, 4.215e-6, -2.689e-6
-0.316, 6.143e-6, 3.884e-6, -2.259e-6, 6.921e-6, 4.238e-6, -2.683e-6
-0.320, 6.141e-6, 3.916e-6, -2.225e-6, 6.935e-6, 4.273e-6, -2.663e-6
-0.324, 6.164e-6, 3.948e-6, -2.217e-6, 6.957e-6, 4.300e-6, -2.657e-6
-0.328, 6.174e-6, 3.988e-6, -2.186e-6, 6.978e-6, 4.338e-6, -2.640e-6
-0.332, 6.176e-6, 4.017e-6, -2.159e-6, 6.991e-6, 4.370e-6, -2.621e-6
-0.336, 6.194e-6, 4.055e-6, -2.139e-6, 7.013e-6, 4.402e-6, -2.611e-6
-0.340, 6.192e-6, 4.089e-6, -2.103e-6, 7.030e-6, 4.440e-6, -2.590e-6
-0.344, 6.216e-6, 4.128e-6, -2.088e-6, 7.055e-6, 4.474e-6, -2.581e-6
-0.348, 6.232e-6, 4.177e-6, -2.055e-6, 7.085e-6, 4.519e-6, -2.566e-6
-0.352, 6.243e-6, 4.219e-6, -2.024e-6, 7.104e-6, 4.562e-6, -2.542e-6
-0.356, 6.261e-6, 4.261e-6, -2.000e-6, 7.124e-6, 4.595e-6, -2.529e-6
-0.360, 6.264e-6, 4.306e-6, -1.958e-6, 7.145e-6, 4.644e-6, -2.502e-6
-0.364, 6.294e-6, 4.354e-6, -1.940e-6, 7.177e-6, 4.684e-6, -2.492e-6
-0.368, 6.316e-6, 4.410e-6, -1.906e-6, 7.213e-6, 4.737e-6, -2.476e-6
-0.372, 6.327e-6, 4.455e-6, -1.872e-6, 7.232e-6, 4.782e-6, -2.450e-6
-0.376, 6.355e-6, 4.508e-6, -1.847e-6, 7.262e-6, 4.826e-6, -2.436e-6
-0.380, 6.366e-6, 4.561e-6, -1.804e-6, 7.291e-6, 4.882e-6, -2.408e-6
-0.384, 6.399e-6, 4.615e-6, -1.783e-6, 7.324e-6, 4.929e-6, -2.395e-6
-0.388, 6.429e-6, 4.682e-6, -1.748e-6, 7.366e-6, 4.991e-6, -2.376e-6
-0.392, 6.443e-6, 4.734e-6, -1.709e-6, 7.390e-6, 5.043e-6, -2.347e-6
-0.396, 6.479e-6, 4.795e-6, -1.685e-6, 7.429e-6, 5.095e-6, -2.333e-6
-0.400, 6.485e-6, 4.850e-6, -1.635e-6, 7.451e-6, 5.153e-6, -2.298e-6
-0.404, 6.524e-6, 4.908e-6, -1.616e-6, 7.489e-6, 5.204e-6, -2.284e-6
-0.408, 6.556e-6, 4.980e-6, -1.576e-6, 7.534e-6, 5.271e-6, -2.262e-6
-0.412, 6.579e-6, 5.040e-6, -1.538e-6, 7.564e-6, 5.330e-6, -2.233e-6
-0.416, 6.615e-6, 5.107e-6, -1.508e-6, 7.602e-6, 5.388e-6, -2.214e-6
-0.420, 6.633e-6, 5.168e-6, -1.465e-6, 7.635e-6, 5.451e-6, -2.184e-6
-0.424, 6.674e-6, 5.231e-6, -1.443e-6, 7.678e-6, 5.509e-6, -2.169e-6
-0.428, 6.709e-6, 5.305e-6, -1.403e-6, 7.725e-6, 5.580e-6, -2.145e-6
-0.432, 6.732e-6, 5.371e-6, -1.362e-6, 7.758e-6, 5.646e-6, -2.111e-6
-0.436, 6.773e-6, 5.437e-6, -1.335e-6, 7.800e-6, 5.704e-6, -2.096e-6
-0.440, 6.793e-6, 5.505e-6, -1.287e-6, 7.833e-6, 5.773e-6, -2.060e-6
-0.444, 6.837e-6, 5.573e-6, -1.264e-6, 7.879e-6, 5.837e-6, -2.042e-6
-0.448, 6.872e-6, 5.650e-6, -1.222e-6, 7.930e-6, 5.912e-6, -2.018e-6
-0.452, 6.897e-6, 5.715e-6, -1.183e-6, 7.963e-6, 5.977e-6, -1.986e-6
-0.456, 6.941e-6, 5.788e-6, -1.153e-6, 8.007e-6, 6.043e-6, -1.964e-6
-0.460, 6.959e-6, 5.853e-6, -1.106e-6, 8.041e-6, 6.112e-6, -1.929e-6
-0.464, 7.008e-6, 5.926e-6, -1.082e-6, 8.091e-6, 6.180e-6, -1.910e-6
-0.468, 7.046e-6, 6.003e-6, -1.042e-6, 8.140e-6, 6.255e-6, -1.885e-6
-0.472, 7.074e-6, 6.071e-6, -1.003e-6, 8.175e-6, 6.324e-6, -1.851e-6
-0.476, 7.114e-6, 6.143e-6, -9.717e-7, 8.219e-6, 6.390e-6, -1.829e-6
-0.480, 7.136e-6, 6.212e-6, -9.241e-7, 8.259e-6, 6.465e-6, -1.794e-6
-0.484, 7.182e-6, 6.279e-6, -9.024e-7, 8.304e-6, 6.528e-6, -1.776e-6
-0.488, 7.220e-6, 6.360e-6, -8.599e-7, 8.359e-6, 6.609e-6, -1.750e-6
-0.492, 7.250e-6, 6.426e-6, -8.240e-7, 8.394e-6, 6.677e-6, -1.716e-6
-0.496, 7.295e-6, 6.499e-6, -7.955e-7, 8.442e-6, 6.745e-6, -1.697e-6
-0.500, 7.319e-6, 6.569e-6, -7.500e-7, 8.483e-6, 6.819e-6, -1.663e-6
-0.504, 7.369e-6, 6.641e-6, -7.280e-7, 8.532e-6, 6.888e-6, -1.644e-6
-0.508, 7.403e-6, 6.717e-6, -6.865e-7, 8.582e-6, 6.966e-6, -1.616e-6
-0.512, 7.435e-6, 6.785e-6, -6.507e-7, 8.624e-6, 7.038e-6, -1.586e-6
-0.516, 7.480e-6, 6.857e-6, -6.230e-7, 8.671e-6, 7.106e-6, -1.566e-6
-0.520, 7.500e-6, 6.923e-6, -5.767e-7, 8.709e-6, 7.180e-6, -1.529e-6
-0.524, 7.560e-6, 7.001e-6, -5.589e-7, 8.768e-6, 7.253e-6, -1.515e-6
-0.528, 7.600e-6, 7.080e-6, -5.201e-7, 8.821e-6, 7.335e-6, -1.487e-6
-0.532, 7.634e-6, 7.148e-6, -4.858e-7, 8.866e-6, 7.407e-6, -1.459e-6
-0.536, 7.682e-6, 7.221e-6, -4.604e-7, 8.918e-6, 7.478e-6, -1.439e-6
-0.540, 7.709e-6, 7.292e-6, -4.169e-7, 8.963e-6, 7.557e-6, -1.405e-6
-0.544, 7.762e-6, 7.364e-6, -3.986e-7, 9.018e-6, 7.630e-6, -1.389e-6
-0.548, 7.812e-6, 7.447e-6, -3.646e-7, 9.081e-6, 7.713e-6, -1.368e-6
-0.552, 7.848e-6, 7.515e-6, -3.324e-7, 9.125e-6, 7.789e-6, -1.336e-6
-0.556, 7.901e-6, 7.592e-6, -3.088e-7, 9.183e-6, 7.863e-6, -1.319e-6
-0.560, 7.935e-6, 7.666e-6, -2.683e-7, 9.234e-6, 7.947e-6, -1.287e-6
-0.564, 7.997e-6, 7.744e-6, -2.523e-7, 9.300e-6, 8.025e-6, -1.274e-6
-0.568, 8.044e-6, 7.825e-6, -2.189e-7, 9.365e-6, 8.112e-6, -1.253e-6
-0.572, 8.092e-6, 7.899e-6, -1.927e-7, 9.423e-6, 8.195e-6, -1.228e-6
-0.576, 8.147e-6, 7.978e-6, -1.692e-7, 9.484e-6, 8.275e-6, -1.210e-6
-0.580, 8.188e-6, 8.053e-6, -1.350e-7, 9.545e-6, 8.361e-6, -1.183e-6
-0.584, 8.257e-6, 8.137e-6, -1.204e-7, 9.614e-6, 8.445e-6, -1.168e-6
-0.588, 8.310e-6, 8.219e-6, -9.014e-8, 9.685e-6, 8.536e-6, -1.150e-6
-0.592, 8.365e-6, 8.301e-6, -6.445e-8, 9.752e-6, 8.628e-6, -1.124e-6
-0.596, 8.433e-6, 8.383e-6, -4.928e-8, 9.827e-6, 8.713e-6, -1.114e-6
-0.600, 8.477e-6, 8.462e-6, -1.457e-8, 9.895e-6, 8.807e-6, -1.088e-6
-0.604, 8.548e-6, 8.545e-6, -3.725e-9, 9.969e-6, 8.894e-6, -1.075e-6
-0.608, 8.617e-6, 8.637e-6, 1.983e-8, 1.005e-5, 8.994e-6, -1.060e-6
-0.612, 8.680e-6, 8.721e-6, 4.046e-8, 1.013e-5, 9.092e-6, -1.040e-6
-0.616, 8.751e-6, 8.809e-6, 5.855e-8, 1.021e-5, 9.186e-6, -1.027e-6
-0.620, 8.806e-6, 8.891e-6, 8.574e-8, 1.029e-5, 9.284e-6, -1.008e-6
-0.624, 8.890e-6, 8.984e-6, 9.336e-8, 1.038e-5, 9.383e-6, -9.963e-7
-0.628, 8.965e-6, 9.079e-6, 1.136e-7, 1.048e-5, 9.492e-6, -9.842e-7
-0.632, 9.033e-6, 9.166e-6, 1.334e-7, 1.056e-5, 9.594e-6, -9.631e-7
-0.636, 9.124e-6, 9.264e-6, 1.404e-7, 1.066e-5, 9.701e-6, -9.614e-7
-0.640, 9.185e-6, 9.353e-6, 1.673e-7, 1.075e-5, 9.809e-6, -9.385e-7
-0.644, 9.280e-6, 9.449e-6, 1.688e-7, 1.085e-5, 9.915e-6, -9.351e-7
-0.648, 9.366e-6, 9.553e-6, 1.867e-7, 1.096e-5, 1.004e-5, -9.249e-7
-0.652, 9.444e-6, 9.646e-6, 2.015e-7, 1.106e-5, 1.015e-5, -9.105e-7
-0.656, 9.541e-6, 9.746e-6, 2.057e-7, 1.117e-5, 1.026e-5, -9.076e-7
-0.660, 9.621e-6, 9.845e-6, 2.244e-7, 1.128e-5, 1.038e-5, -8.937e-7
-0.664, 9.724e-6, 9.951e-6, 2.264e-7, 1.139e-5, 1.050e-5, -8.891e-7
-0.668, 9.830e-6, 1.006e-5, 2.343e-7, 1.152e-5, 1.063e-5, -8.876e-7
-0.672, 9.919e-6, 1.017e-5, 2.464e-7, 1.163e-5, 1.075e-5, -8.720e-7
-0.676, 1.004e-5, 1.028e-5, 2.416e-7, 1.176e-5, 1.088e-5, -8.778e-7
-0.680, 1.012e-5, 1.038e-5, 2.595e-7, 1.188e-5, 1.101e-5, -8.642e-7
-0.684, 1.024e-5, 1.050e-5, 2.533e-7, 1.201e-5, 1.114e-5, -8.647e-7
-0.688, 1.035e-5, 1.062e-5, 2.618e-7, 1.215e-5, 1.129e-5, -8.640e-7
-0.692, 1.047e-5, 1.073e-5, 2.618e-7, 1.228e-5, 1.142e-5, -8.589e-7
-0.696, 1.060e-5, 1.085e-5, 2.578e-7, 1.243e-5, 1.157e-5, -8.641e-7
-0.700, 1.070e-5, 1.097e-5, 2.687e-7, 1.257e-5, 1.171e-5, -8.559e-7
