Sept. 28, 2023   14:42:59
Square Wave Voltammetry
File: c:\users\biose\documents\heatherl\epbp\09282023\frequencyscan\100_0_1.txt
Data Source:  Experiment
Instrument Model:  CHI1040C
Header: 
Note: 

Init E (V) = 0
Final E (V) = -0.7
Incr E (V) = 0.004
Amplitude (V) = 0.05
Frequency (Hz) = 100
Quiet Time (sec) = 2
Sensitivity (A/V) = 1e-5

E2 Scan On
Sens 2 = 1e-005

Results:

Channel 1:
Difference:

Forward:

Reverse:

Channel 2:
Difference:

Forward:

Reverse:

Potential/V, i1d/A, i1f/A, i1r/A, i2d/A, i2f/A, i2r/A

-0.004, 6.699e-6, 1.280e-6, -5.420e-6, 7.562e-6, 1.450e-6, -6.112e-6
-0.008, 9.338e-6, 4.354e-6, -4.984e-6, 1.064e-5, 5.009e-6, -5.632e-6
-0.012, 9.190e-6, 4.396e-6, -4.794e-6, 1.048e-5, 5.058e-6, -5.424e-6
-0.016, 8.989e-6, 4.359e-6, -4.629e-6, 1.028e-5, 5.022e-6, -5.258e-6
-0.020, 8.779e-6, 4.293e-6, -4.487e-6, 1.006e-5, 4.954e-6, -5.102e-6
-0.024, 8.597e-6, 4.239e-6, -4.358e-6, 9.862e-6, 4.894e-6, -4.968e-6
-0.028, 8.400e-6, 4.175e-6, -4.225e-6, 9.666e-6, 4.833e-6, -4.832e-6
-0.032, 8.237e-6, 4.116e-6, -4.121e-6, 9.483e-6, 4.767e-6, -4.716e-6
-0.036, 8.085e-6, 4.069e-6, -4.015e-6, 9.329e-6, 4.719e-6, -4.610e-6
-0.040, 7.925e-6, 4.011e-6, -3.914e-6, 9.160e-6, 4.660e-6, -4.499e-6
-0.044, 7.793e-6, 3.967e-6, -3.827e-6, 9.015e-6, 4.608e-6, -4.408e-6
-0.048, 7.644e-6, 3.914e-6, -3.730e-6, 8.864e-6, 4.556e-6, -4.309e-6
-0.052, 7.533e-6, 3.871e-6, -3.662e-6, 8.737e-6, 4.507e-6, -4.230e-6
-0.056, 7.424e-6, 3.839e-6, -3.585e-6, 8.627e-6, 4.474e-6, -4.152e-6
-0.060, 7.310e-6, 3.800e-6, -3.511e-6, 8.505e-6, 4.434e-6, -4.071e-6
-0.064, 7.221e-6, 3.769e-6, -3.452e-6, 8.406e-6, 4.396e-6, -4.010e-6
-0.068, 7.112e-6, 3.731e-6, -3.381e-6, 8.295e-6, 4.359e-6, -3.936e-6
-0.072, 7.037e-6, 3.704e-6, -3.334e-6, 8.205e-6, 4.325e-6, -3.879e-6
-0.076, 6.966e-6, 3.685e-6, -3.281e-6, 8.132e-6, 4.304e-6, -3.827e-6
-0.080, 6.886e-6, 3.658e-6, -3.228e-6, 8.045e-6, 4.278e-6, -3.766e-6
-0.084, 6.835e-6, 3.643e-6, -3.192e-6, 7.981e-6, 4.254e-6, -3.728e-6
-0.088, 6.753e-6, 3.619e-6, -3.135e-6, 7.902e-6, 4.234e-6, -3.668e-6
-0.092, 6.711e-6, 3.603e-6, -3.108e-6, 7.846e-6, 4.213e-6, -3.633e-6
-0.096, 6.667e-6, 3.597e-6, -3.071e-6, 7.803e-6, 4.205e-6, -3.598e-6
-0.100, 6.614e-6, 3.581e-6, -3.032e-6, 7.740e-6, 4.188e-6, -3.552e-6
-0.104, 6.583e-6, 3.576e-6, -3.007e-6, 7.700e-6, 4.175e-6, -3.525e-6
-0.108, 6.532e-6, 3.561e-6, -2.971e-6, 7.645e-6, 4.160e-6, -3.485e-6
-0.112, 6.513e-6, 3.558e-6, -2.955e-6, 7.612e-6, 4.150e-6, -3.462e-6
-0.116, 6.491e-6, 3.561e-6, -2.930e-6, 7.590e-6, 4.151e-6, -3.439e-6
-0.120, 6.459e-6, 3.556e-6, -2.903e-6, 7.550e-6, 4.145e-6, -3.405e-6
-0.124, 6.452e-6, 3.561e-6, -2.891e-6, 7.533e-6, 4.141e-6, -3.392e-6
-0.128, 6.415e-6, 3.554e-6, -2.862e-6, 7.493e-6, 4.134e-6, -3.359e-6
-0.132, 6.422e-6, 3.562e-6, -2.860e-6, 7.484e-6, 4.135e-6, -3.349e-6
-0.136, 6.418e-6, 3.573e-6, -2.845e-6, 7.477e-6, 4.142e-6, -3.335e-6
-0.140, 6.411e-6, 3.578e-6, -2.833e-6, 7.460e-6, 4.145e-6, -3.315e-6
-0.144, 6.415e-6, 3.589e-6, -2.826e-6, 7.451e-6, 4.147e-6, -3.304e-6
-0.148, 6.401e-6, 3.593e-6, -2.808e-6, 7.435e-6, 4.151e-6, -3.284e-6
-0.152, 6.422e-6, 3.611e-6, -2.812e-6, 7.437e-6, 4.158e-6, -3.279e-6
-0.156, 6.439e-6, 3.632e-6, -2.807e-6, 7.450e-6, 4.175e-6, -3.276e-6
-0.160, 6.444e-6, 3.645e-6, -2.799e-6, 7.438e-6, 4.182e-6, -3.257e-6
-0.164, 6.468e-6, 3.666e-6, -2.802e-6, 7.449e-6, 4.193e-6, -3.256e-6
-0.168, 6.474e-6, 3.681e-6, -2.792e-6, 7.447e-6, 4.205e-6, -3.242e-6
-0.172, 6.509e-6, 3.705e-6, -2.803e-6, 7.462e-6, 4.216e-6, -3.246e-6
-0.176, 6.536e-6, 3.735e-6, -2.801e-6, 7.485e-6, 4.241e-6, -3.244e-6
-0.180, 6.562e-6, 3.757e-6, -2.805e-6, 7.495e-6, 4.257e-6, -3.238e-6
-0.184, 6.598e-6, 3.787e-6, -2.811e-6, 7.511e-6, 4.274e-6, -3.237e-6
-0.188, 6.620e-6, 3.811e-6, -2.810e-6, 7.524e-6, 4.291e-6, -3.233e-6
-0.192, 6.666e-6, 3.845e-6, -2.822e-6, 7.547e-6, 4.313e-6, -3.234e-6
-0.196, 6.711e-6, 3.882e-6, -2.829e-6, 7.579e-6, 4.339e-6, -3.240e-6
-0.200, 6.749e-6, 3.915e-6, -2.834e-6, 7.597e-6, 4.364e-6, -3.232e-6
-0.204, 6.802e-6, 3.951e-6, -2.851e-6, 7.629e-6, 4.384e-6, -3.244e-6
-0.208, 6.831e-6, 3.984e-6, -2.847e-6, 7.647e-6, 4.410e-6, -3.237e-6
-0.212, 6.891e-6, 4.024e-6, -2.867e-6, 7.678e-6, 4.433e-6, -3.245e-6
-0.216, 6.945e-6, 4.070e-6, -2.875e-6, 7.716e-6, 4.466e-6, -3.250e-6
-0.220, 6.992e-6, 4.108e-6, -2.884e-6, 7.742e-6, 4.494e-6, -3.247e-6
-0.224, 7.056e-6, 4.155e-6, -2.901e-6, 7.780e-6, 4.523e-6, -3.258e-6
-0.228, 7.096e-6, 4.192e-6, -2.904e-6, 7.804e-6, 4.551e-6, -3.254e-6
-0.232, 7.161e-6, 4.238e-6, -2.924e-6, 7.841e-6, 4.580e-6, -3.262e-6
-0.236, 7.224e-6, 4.289e-6, -2.935e-6, 7.890e-6, 4.620e-6, -3.271e-6
-0.240, 7.274e-6, 4.332e-6, -2.942e-6, 7.918e-6, 4.653e-6, -3.266e-6
-0.244, 7.338e-6, 4.378e-6, -2.961e-6, 7.956e-6, 4.681e-6, -3.276e-6
-0.248, 7.379e-6, 4.420e-6, -2.959e-6, 7.982e-6, 4.714e-6, -3.268e-6
-0.252, 7.449e-6, 4.470e-6, -2.980e-6, 8.023e-6, 4.746e-6, -3.277e-6
-0.256, 7.506e-6, 4.520e-6, -2.986e-6, 8.067e-6, 4.787e-6, -3.280e-6
-0.260, 7.553e-6, 4.563e-6, -2.991e-6, 8.099e-6, 4.823e-6, -3.276e-6
-0.264, 7.614e-6, 4.612e-6, -3.002e-6, 8.138e-6, 4.858e-6, -3.281e-6
-0.268, 7.644e-6, 4.650e-6, -2.994e-6, 8.161e-6, 4.891e-6, -3.270e-6
-0.272, 7.701e-6, 4.695e-6, -3.006e-6, 8.197e-6, 4.925e-6, -3.272e-6
-0.276, 7.753e-6, 4.747e-6, -3.007e-6, 8.243e-6, 4.971e-6, -3.272e-6
-0.280, 7.790e-6, 4.788e-6, -3.002e-6, 8.269e-6, 5.009e-6, -3.260e-6
-0.284, 7.840e-6, 4.834e-6, -3.006e-6, 8.307e-6, 5.046e-6, -3.260e-6
-0.288, 7.858e-6, 4.872e-6, -2.986e-6, 8.328e-6, 5.086e-6, -3.242e-6
-0.292, 7.910e-6, 4.919e-6, -2.991e-6, 8.369e-6, 5.127e-6, -3.242e-6
-0.296, 7.935e-6, 4.962e-6, -2.972e-6, 8.399e-6, 5.170e-6, -3.228e-6
-0.300, 7.960e-6, 5.002e-6, -2.959e-6, 8.426e-6, 5.213e-6, -3.213e-6
-0.304, 7.992e-6, 5.046e-6, -2.946e-6, 8.457e-6, 5.254e-6, -3.203e-6
-0.308, 7.999e-6, 5.081e-6, -2.918e-6, 8.478e-6, 5.295e-6, -3.182e-6
-0.312, 8.033e-6, 5.126e-6, -2.908e-6, 8.509e-6, 5.339e-6, -3.170e-6
-0.316, 8.055e-6, 5.174e-6, -2.881e-6, 8.547e-6, 5.392e-6, -3.155e-6
-0.320, 8.063e-6, 5.210e-6, -2.853e-6, 8.563e-6, 5.433e-6, -3.130e-6
-0.324, 8.089e-6, 5.258e-6, -2.832e-6, 8.600e-6, 5.483e-6, -3.117e-6
-0.328, 8.081e-6, 5.295e-6, -2.786e-6, 8.611e-6, 5.531e-6, -3.080e-6
-0.332, 8.110e-6, 5.339e-6, -2.771e-6, 8.645e-6, 5.578e-6, -3.067e-6
-0.336, 8.119e-6, 5.389e-6, -2.730e-6, 8.676e-6, 5.634e-6, -3.041e-6
-0.340, 8.122e-6, 5.428e-6, -2.693e-6, 8.691e-6, 5.681e-6, -3.009e-6
-0.344, 8.140e-6, 5.479e-6, -2.661e-6, 8.719e-6, 5.733e-6, -2.986e-6
-0.348, 8.134e-6, 5.519e-6, -2.615e-6, 8.738e-6, 5.785e-6, -2.953e-6
-0.352, 8.150e-6, 5.564e-6, -2.585e-6, 8.763e-6, 5.835e-6, -2.928e-6
-0.356, 8.168e-6, 5.622e-6, -2.546e-6, 8.799e-6, 5.898e-6, -2.901e-6
-0.360, 8.164e-6, 5.666e-6, -2.499e-6, 8.811e-6, 5.951e-6, -2.861e-6
-0.364, 8.180e-6, 5.716e-6, -2.464e-6, 8.838e-6, 6.004e-6, -2.834e-6
-0.368, 8.172e-6, 5.763e-6, -2.410e-6, 8.851e-6, 6.060e-6, -2.791e-6
-0.372, 8.192e-6, 5.814e-6, -2.378e-6, 8.879e-6, 6.115e-6, -2.764e-6
-0.376, 8.201e-6, 5.869e-6, -2.331e-6, 8.906e-6, 6.175e-6, -2.731e-6
-0.380, 8.203e-6, 5.919e-6, -2.283e-6, 8.921e-6, 6.234e-6, -2.686e-6
-0.384, 8.214e-6, 5.972e-6, -2.242e-6, 8.944e-6, 6.291e-6, -2.653e-6
-0.388, 8.207e-6, 6.019e-6, -2.188e-6, 8.957e-6, 6.348e-6, -2.609e-6
-0.392, 8.226e-6, 6.072e-6, -2.153e-6, 8.977e-6, 6.401e-6, -2.576e-6
-0.396, 8.243e-6, 6.133e-6, -2.109e-6, 9.014e-6, 6.470e-6, -2.544e-6
-0.400, 8.239e-6, 6.182e-6, -2.057e-6, 9.022e-6, 6.527e-6, -2.494e-6
-0.404, 8.257e-6, 6.238e-6, -2.018e-6, 9.044e-6, 6.582e-6, -2.462e-6
-0.408, 8.248e-6, 6.290e-6, -1.959e-6, 9.055e-6, 6.644e-6, -2.411e-6
-0.412, 8.270e-6, 6.344e-6, -1.926e-6, 9.078e-6, 6.700e-6, -2.378e-6
-0.416, 8.278e-6, 6.404e-6, -1.874e-6, 9.100e-6, 6.765e-6, -2.336e-6
-0.420, 8.284e-6, 6.455e-6, -1.829e-6, 9.114e-6, 6.823e-6, -2.292e-6
-0.424, 8.297e-6, 6.512e-6, -1.785e-6, 9.132e-6, 6.879e-6, -2.253e-6
-0.428, 8.291e-6, 6.563e-6, -1.728e-6, 9.140e-6, 6.939e-6, -2.201e-6
-0.432, 8.311e-6, 6.617e-6, -1.694e-6, 9.161e-6, 6.994e-6, -2.167e-6
-0.436, 8.322e-6, 6.676e-6, -1.646e-6, 9.187e-6, 7.058e-6, -2.129e-6
-0.440, 8.326e-6, 6.730e-6, -1.596e-6, 9.197e-6, 7.118e-6, -2.079e-6
-0.444, 8.344e-6, 6.784e-6, -1.560e-6, 9.217e-6, 7.172e-6, -2.045e-6
-0.448, 8.334e-6, 6.833e-6, -1.501e-6, 9.221e-6, 7.230e-6, -1.991e-6
-0.452, 8.359e-6, 6.889e-6, -1.470e-6, 9.242e-6, 7.284e-6, -1.958e-6
-0.456, 8.370e-6, 6.948e-6, -1.422e-6, 9.268e-6, 7.350e-6, -1.918e-6
-0.460, 8.373e-6, 6.997e-6, -1.377e-6, 9.275e-6, 7.404e-6, -1.871e-6
-0.464, 8.391e-6, 7.053e-6, -1.339e-6, 9.293e-6, 7.459e-6, -1.835e-6
-0.468, 8.387e-6, 7.102e-6, -1.285e-6, 9.304e-6, 7.516e-6, -1.788e-6
-0.472, 8.408e-6, 7.153e-6, -1.255e-6, 9.321e-6, 7.567e-6, -1.754e-6
-0.476, 8.422e-6, 7.211e-6, -1.211e-6, 9.345e-6, 7.628e-6, -1.717e-6
-0.480, 8.428e-6, 7.260e-6, -1.168e-6, 9.356e-6, 7.684e-6, -1.672e-6
-0.484, 8.444e-6, 7.312e-6, -1.131e-6, 9.373e-6, 7.736e-6, -1.638e-6
-0.488, 8.444e-6, 7.361e-6, -1.083e-6, 9.387e-6, 7.793e-6, -1.594e-6
-0.492, 8.467e-6, 7.413e-6, -1.054e-6, 9.407e-6, 7.843e-6, -1.564e-6
-0.496, 8.484e-6, 7.470e-6, -1.013e-6, 9.431e-6, 7.902e-6, -1.528e-6
-0.500, 8.497e-6, 7.518e-6, -9.783e-7, 9.450e-6, 7.958e-6, -1.492e-6
-0.504, 8.514e-6, 7.567e-6, -9.462e-7, 9.466e-6, 8.004e-6, -1.462e-6
-0.508, 8.519e-6, 7.616e-6, -9.028e-7, 9.482e-6, 8.060e-6, -1.422e-6
-0.512, 8.543e-6, 7.666e-6, -8.768e-7, 9.504e-6, 8.110e-6, -1.394e-6
-0.516, 8.565e-6, 7.722e-6, -8.433e-7, 9.536e-6, 8.170e-6, -1.367e-6
-0.520, 8.579e-6, 7.770e-6, -8.093e-7, 9.552e-6, 8.221e-6, -1.331e-6
-0.524, 8.603e-6, 7.821e-6, -7.816e-7, 9.578e-6, 8.272e-6, -1.306e-6
-0.528, 8.605e-6, 7.863e-6, -7.412e-7, 9.590e-6, 8.320e-6, -1.269e-6
-0.532, 8.641e-6, 7.916e-6, -7.249e-7, 9.621e-6, 8.372e-6, -1.249e-6
-0.536, 8.663e-6, 7.970e-6, -6.924e-7, 9.654e-6, 8.430e-6, -1.225e-6
-0.540, 8.682e-6, 8.017e-6, -6.648e-7, 9.676e-6, 8.480e-6, -1.196e-6
-0.544, 8.713e-6, 8.070e-6, -6.422e-7, 9.703e-6, 8.529e-6, -1.174e-6
-0.548, 8.725e-6, 8.116e-6, -6.092e-7, 9.731e-6, 8.584e-6, -1.147e-6
-0.552, 8.760e-6, 8.168e-6, -5.925e-7, 9.763e-6, 8.634e-6, -1.128e-6
-0.556, 8.792e-6, 8.225e-6, -5.675e-7, 9.804e-6, 8.693e-6, -1.111e-6
-0.560, 8.813e-6, 8.270e-6, -5.432e-7, 9.829e-6, 8.745e-6, -1.084e-6
-0.564, 8.853e-6, 8.323e-6, -5.302e-7, 9.870e-6, 8.795e-6, -1.075e-6
-0.568, 8.871e-6, 8.371e-6, -5.001e-7, 9.900e-6, 8.851e-6, -1.050e-6
-0.572, 8.919e-6, 8.426e-6, -4.927e-7, 9.941e-6, 8.904e-6, -1.038e-6
-0.576, 8.957e-6, 8.486e-6, -4.715e-7, 9.989e-6, 8.964e-6, -1.024e-6
-0.580, 8.985e-6, 8.533e-6, -4.514e-7, 1.002e-5, 9.018e-6, -1.004e-6
-0.584, 9.030e-6, 8.588e-6, -4.423e-7, 1.007e-5, 9.071e-6, -9.980e-7
-0.588, 9.055e-6, 8.638e-6, -4.165e-7, 1.011e-5, 9.130e-6, -9.782e-7
-0.592, 9.109e-6, 8.696e-6, -4.127e-7, 1.016e-5, 9.185e-6, -9.703e-7
-0.596, 9.158e-6, 8.759e-6, -3.990e-7, 1.022e-5, 9.250e-6, -9.661e-7
-0.600, 9.195e-6, 8.813e-6, -3.821e-7, 1.026e-5, 9.310e-6, -9.486e-7
-0.604, 9.250e-6, 8.869e-6, -3.810e-7, 1.031e-5, 9.364e-6, -9.504e-7
-0.608, 9.282e-6, 8.924e-6, -3.574e-7, 1.036e-5, 9.426e-6, -9.323e-7
-0.612, 9.354e-6, 8.989e-6, -3.643e-7, 1.043e-5, 9.492e-6, -9.379e-7
-0.616, 9.404e-6, 9.053e-6, -3.509e-7, 1.049e-5, 9.557e-6, -9.316e-7
-0.620, 9.455e-6, 9.112e-6, -3.428e-7, 1.055e-5, 9.624e-6, -9.240e-7
-0.624, 9.523e-6, 9.179e-6, -3.441e-7, 1.062e-5, 9.690e-6, -9.262e-7
-0.628, 9.566e-6, 9.239e-6, -3.273e-7, 1.067e-5, 9.756e-6, -9.164e-7
-0.632, 9.640e-6, 9.306e-6, -3.334e-7, 1.074e-5, 9.821e-6, -9.210e-7
-0.636, 9.712e-6, 9.382e-6, -3.300e-7, 1.083e-5, 9.903e-6, -9.269e-7
-0.640, 9.771e-6, 9.447e-6, -3.236e-7, 1.090e-5, 9.976e-6, -9.196e-7
-0.644, 9.850e-6, 9.520e-6, -3.300e-7, 1.098e-5, 1.005e-5, -9.299e-7
-0.648, 9.910e-6, 9.590e-6, -3.201e-7, 1.105e-5, 1.013e-5, -9.249e-7
-0.652, 1.000e-5, 9.665e-6, -3.368e-7, 1.114e-5, 1.020e-5, -9.386e-7
-0.656, 1.008e-5, 9.749e-6, -3.335e-7, 1.123e-5, 1.029e-5, -9.440e-7
-0.660, 1.016e-5, 9.824e-6, -3.382e-7, 1.132e-5, 1.037e-5, -9.484e-7
-0.664, 1.025e-5, 9.906e-6, -3.412e-7, 1.141e-5, 1.046e-5, -9.563e-7
-0.668, 1.032e-5, 9.982e-6, -3.408e-7, 1.150e-5, 1.054e-5, -9.606e-7
-0.672, 1.043e-5, 1.007e-5, -3.579e-7, 1.161e-5, 1.063e-5, -9.754e-7
-0.676, 1.053e-5, 1.016e-5, -3.637e-7, 1.172e-5, 1.073e-5, -9.904e-7
-0.680, 1.062e-5, 1.025e-5, -3.676e-7, 1.182e-5, 1.083e-5, -9.910e-7
-0.684, 1.074e-5, 1.035e-5, -3.872e-7, 1.194e-5, 1.093e-5, -1.015e-6
-0.688, 1.082e-5, 1.044e-5, -3.857e-7, 1.205e-5, 1.103e-5, -1.018e-6
-0.692, 1.095e-5, 1.054e-5, -4.111e-7, 1.218e-5, 1.113e-5, -1.042e-6
-0.696, 1.106e-5, 1.065e-5, -4.191e-7, 1.231e-5, 1.125e-5, -1.058e-6
-0.700, 1.118e-5, 1.075e-5, -4.319e-7, 1.243e-5, 1.136e-5, -1.071e-6
