Sept. 28, 2023   15:05:43
Square Wave Voltammetry
File: c:\users\biose\documents\heatherl\epbp\09282023\frequencyscan\30_100_2.txt
Data Source:  Experiment
Instrument Model:  CHI1040C
Header: 
Note: 

Init E (V) = 0
Final E (V) = -0.7
Incr E (V) = 0.004
Amplitude (V) = 0.05
Frequency (Hz) = 30
Quiet Time (sec) = 2
Sensitivity (A/V) = 1e-5

E2 Scan On
Sens 2 = 1e-005

Results:

Channel 1:
Difference:

Forward:

Reverse:

Channel 2:
Difference:

Forward:

Reverse:

Potential/V, i1d/A, i1f/A, i1r/A, i2d/A, i2f/A, i2r/A

-0.004, 1.690e-6, 4.076e-7, -1.282e-6, 1.906e-6, 4.492e-7, -1.457e-6
-0.008, 1.995e-6, 8.517e-7, -1.144e-6, 2.261e-6, 9.589e-7, -1.302e-6
-0.012, 1.956e-6, 8.779e-7, -1.078e-6, 2.215e-6, 9.879e-7, -1.227e-6
-0.016, 1.904e-6, 8.762e-7, -1.027e-6, 2.156e-6, 9.862e-7, -1.170e-6
-0.020, 1.851e-6, 8.685e-7, -9.827e-7, 2.097e-6, 9.782e-7, -1.119e-6
-0.024, 1.804e-6, 8.588e-7, -9.449e-7, 2.043e-6, 9.675e-7, -1.076e-6
-0.028, 1.757e-6, 8.482e-7, -9.085e-7, 1.991e-6, 9.562e-7, -1.035e-6
-0.032, 1.714e-6, 8.374e-7, -8.762e-7, 1.942e-6, 9.445e-7, -9.972e-7
-0.036, 1.673e-6, 8.270e-7, -8.456e-7, 1.896e-6, 9.334e-7, -9.622e-7
-0.040, 1.633e-6, 8.159e-7, -8.174e-7, 1.852e-6, 9.218e-7, -9.301e-7
-0.044, 1.597e-6, 8.060e-7, -7.907e-7, 1.810e-6, 9.106e-7, -8.997e-7
-0.048, 1.562e-6, 7.956e-7, -7.660e-7, 1.770e-6, 8.992e-7, -8.707e-7
-0.052, 1.530e-6, 7.867e-7, -7.429e-7, 1.734e-6, 8.900e-7, -8.444e-7
-0.056, 1.499e-6, 7.776e-7, -7.217e-7, 1.700e-6, 8.801e-7, -8.196e-7
-0.060, 1.471e-6, 7.693e-7, -7.021e-7, 1.667e-6, 8.706e-7, -7.968e-7
-0.064, 1.444e-6, 7.608e-7, -6.830e-7, 1.636e-6, 8.616e-7, -7.746e-7
-0.068, 1.419e-6, 7.540e-7, -6.653e-7, 1.609e-6, 8.541e-7, -7.544e-7
-0.072, 1.396e-6, 7.471e-7, -6.484e-7, 1.582e-6, 8.462e-7, -7.354e-7
-0.076, 1.373e-6, 7.401e-7, -6.334e-7, 1.556e-6, 8.381e-7, -7.176e-7
-0.080, 1.352e-6, 7.338e-7, -6.181e-7, 1.531e-6, 8.313e-7, -6.994e-7
-0.084, 1.334e-6, 7.287e-7, -6.049e-7, 1.510e-6, 8.253e-7, -6.848e-7
-0.088, 1.316e-6, 7.237e-7, -5.921e-7, 1.488e-6, 8.195e-7, -6.690e-7
-0.092, 1.298e-6, 7.182e-7, -5.798e-7, 1.469e-6, 8.135e-7, -6.553e-7
-0.096, 1.283e-6, 7.145e-7, -5.688e-7, 1.450e-6, 8.088e-7, -6.415e-7
-0.100, 1.268e-6, 7.103e-7, -5.577e-7, 1.433e-6, 8.037e-7, -6.289e-7
-0.104, 1.255e-6, 7.078e-7, -5.470e-7, 1.417e-6, 8.005e-7, -6.162e-7
-0.108, 1.243e-6, 7.047e-7, -5.379e-7, 1.401e-6, 7.960e-7, -6.053e-7
-0.112, 1.231e-6, 7.021e-7, -5.289e-7, 1.387e-6, 7.928e-7, -5.944e-7
-0.116, 1.220e-6, 6.996e-7, -5.205e-7, 1.373e-6, 7.890e-7, -5.842e-7
-0.120, 1.211e-6, 6.983e-7, -5.128e-7, 1.361e-6, 7.866e-7, -5.748e-7
-0.124, 1.202e-6, 6.971e-7, -5.049e-7, 1.350e-6, 7.845e-7, -5.656e-7
-0.128, 1.195e-6, 6.961e-7, -4.986e-7, 1.339e-6, 7.827e-7, -5.567e-7
-0.132, 1.187e-6, 6.955e-7, -4.919e-7, 1.329e-6, 7.807e-7, -5.485e-7
-0.136, 1.182e-6, 6.960e-7, -4.856e-7, 1.320e-6, 7.798e-7, -5.406e-7
-0.140, 1.176e-6, 6.962e-7, -4.796e-7, 1.311e-6, 7.787e-7, -5.323e-7
-0.144, 1.171e-6, 6.968e-7, -4.738e-7, 1.303e-6, 7.776e-7, -5.252e-7
-0.148, 1.167e-6, 6.982e-7, -4.688e-7, 1.297e-6, 7.777e-7, -5.189e-7
-0.152, 1.164e-6, 7.000e-7, -4.638e-7, 1.290e-6, 7.783e-7, -5.119e-7
-0.156, 1.162e-6, 7.024e-7, -4.592e-7, 1.285e-6, 7.785e-7, -5.060e-7
-0.160, 1.160e-6, 7.048e-7, -4.555e-7, 1.280e-6, 7.796e-7, -5.006e-7
-0.164, 1.159e-6, 7.082e-7, -4.505e-7, 1.274e-6, 7.807e-7, -4.935e-7
-0.168, 1.159e-6, 7.119e-7, -4.468e-7, 1.271e-6, 7.826e-7, -4.886e-7
-0.172, 1.158e-6, 7.152e-7, -4.429e-7, 1.267e-6, 7.839e-7, -4.827e-7
-0.176, 1.161e-6, 7.202e-7, -4.407e-7, 1.266e-6, 7.871e-7, -4.787e-7
-0.180, 1.161e-6, 7.246e-7, -4.368e-7, 1.263e-6, 7.890e-7, -4.736e-7
-0.184, 1.164e-6, 7.307e-7, -4.335e-7, 1.261e-6, 7.924e-7, -4.685e-7
-0.188, 1.167e-6, 7.368e-7, -4.301e-7, 1.260e-6, 7.964e-7, -4.632e-7
-0.192, 1.171e-6, 7.435e-7, -4.277e-7, 1.259e-6, 8.001e-7, -4.589e-7
-0.196, 1.175e-6, 7.505e-7, -4.247e-7, 1.259e-6, 8.044e-7, -4.545e-7
-0.200, 1.181e-6, 7.589e-7, -4.222e-7, 1.260e-6, 8.097e-7, -4.502e-7
-0.204, 1.186e-6, 7.671e-7, -4.193e-7, 1.260e-6, 8.147e-7, -4.457e-7
-0.208, 1.192e-6, 7.756e-7, -4.169e-7, 1.261e-6, 8.196e-7, -4.416e-7
-0.212, 1.199e-6, 7.850e-7, -4.143e-7, 1.263e-6, 8.260e-7, -4.374e-7
-0.216, 1.207e-6, 7.950e-7, -4.122e-7, 1.266e-6, 8.321e-7, -4.334e-7
-0.220, 1.215e-6, 8.050e-7, -4.101e-7, 1.268e-6, 8.387e-7, -4.293e-7
-0.224, 1.223e-6, 8.158e-7, -4.068e-7, 1.270e-6, 8.452e-7, -4.243e-7
-0.228, 1.231e-6, 8.271e-7, -4.041e-7, 1.273e-6, 8.526e-7, -4.200e-7
-0.232, 1.240e-6, 8.390e-7, -4.006e-7, 1.275e-6, 8.604e-7, -4.147e-7
-0.236, 1.249e-6, 8.506e-7, -3.980e-7, 1.279e-6, 8.685e-7, -4.104e-7
-0.240, 1.258e-6, 8.632e-7, -3.950e-7, 1.283e-6, 8.771e-7, -4.059e-7
-0.244, 1.267e-6, 8.756e-7, -3.916e-7, 1.286e-6, 8.857e-7, -4.005e-7
-0.248, 1.277e-6, 8.894e-7, -3.878e-7, 1.291e-6, 8.957e-7, -3.958e-7
-0.252, 1.287e-6, 9.027e-7, -3.841e-7, 1.295e-6, 9.050e-7, -3.902e-7
-0.256, 1.296e-6, 9.166e-7, -3.793e-7, 1.300e-6, 9.153e-7, -3.849e-7
-0.260, 1.304e-6, 9.298e-7, -3.742e-7, 1.303e-6, 9.248e-7, -3.783e-7
-0.264, 1.313e-6, 9.447e-7, -3.686e-7, 1.308e-6, 9.358e-7, -3.722e-7
-0.268, 1.323e-6, 9.602e-7, -3.627e-7, 1.314e-6, 9.484e-7, -3.655e-7
-0.272, 1.331e-6, 9.747e-7, -3.561e-7, 1.318e-6, 9.597e-7, -3.582e-7
-0.276, 1.341e-6, 9.917e-7, -3.488e-7, 1.324e-6, 9.733e-7, -3.510e-7
-0.280, 1.348e-6, 1.008e-6, -3.405e-7, 1.329e-6, 9.861e-7, -3.433e-7
-0.284, 1.356e-6, 1.024e-6, -3.324e-7, 1.336e-6, 9.997e-7, -3.359e-7
-0.288, 1.364e-6, 1.041e-6, -3.227e-7, 1.341e-6, 1.014e-6, -3.267e-7
-0.292, 1.371e-6, 1.059e-6, -3.122e-7, 1.346e-6, 1.028e-6, -3.174e-7
-0.296, 1.378e-6, 1.077e-6, -3.010e-7, 1.352e-6, 1.044e-6, -3.083e-7
-0.300, 1.385e-6, 1.096e-6, -2.894e-7, 1.359e-6, 1.060e-6, -2.985e-7
-0.304, 1.393e-6, 1.116e-6, -2.767e-7, 1.365e-6, 1.077e-6, -2.882e-7
-0.308, 1.400e-6, 1.137e-6, -2.631e-7, 1.372e-6, 1.095e-6, -2.776e-7
-0.312, 1.406e-6, 1.156e-6, -2.493e-7, 1.379e-6, 1.112e-6, -2.672e-7
-0.316, 1.414e-6, 1.179e-6, -2.350e-7, 1.388e-6, 1.132e-6, -2.560e-7
-0.320, 1.419e-6, 1.201e-6, -2.187e-7, 1.394e-6, 1.151e-6, -2.437e-7
-0.324, 1.427e-6, 1.224e-6, -2.034e-7, 1.403e-6, 1.171e-6, -2.321e-7
-0.328, 1.434e-6, 1.248e-6, -1.866e-7, 1.412e-6, 1.192e-6, -2.198e-7
-0.332, 1.442e-6, 1.273e-6, -1.694e-7, 1.421e-6, 1.214e-6, -2.071e-7
-0.336, 1.449e-6, 1.298e-6, -1.516e-7, 1.430e-6, 1.236e-6, -1.938e-7
-0.340, 1.457e-6, 1.323e-6, -1.335e-7, 1.439e-6, 1.259e-6, -1.803e-7
-0.344, 1.466e-6, 1.351e-6, -1.155e-7, 1.450e-6, 1.283e-6, -1.673e-7
-0.348, 1.474e-6, 1.378e-6, -9.581e-8, 1.460e-6, 1.307e-6, -1.527e-7
-0.352, 1.483e-6, 1.406e-6, -7.692e-8, 1.471e-6, 1.332e-6, -1.391e-7
-0.356, 1.491e-6, 1.435e-6, -5.656e-8, 1.481e-6, 1.357e-6, -1.239e-7
-0.360, 1.501e-6, 1.464e-6, -3.653e-8, 1.492e-6, 1.383e-6, -1.088e-7
-0.364, 1.511e-6, 1.495e-6, -1.602e-8, 1.504e-6, 1.411e-6, -9.330e-8
-0.368, 1.520e-6, 1.525e-6, 5.196e-9, 1.515e-6, 1.437e-6, -7.765e-8
-0.372, 1.530e-6, 1.557e-6, 2.688e-8, 1.526e-6, 1.466e-6, -6.051e-8
-0.376, 1.540e-6, 1.589e-6, 4.839e-8, 1.538e-6, 1.494e-6, -4.368e-8
-0.380, 1.550e-6, 1.621e-6, 7.046e-8, 1.550e-6, 1.523e-6, -2.678e-8
-0.384, 1.560e-6, 1.653e-6, 9.296e-8, 1.562e-6, 1.552e-6, -9.233e-9
-0.388, 1.572e-6, 1.686e-6, 1.145e-7, 1.574e-6, 1.582e-6, 7.618e-9
-0.392, 1.583e-6, 1.720e-6, 1.372e-7, 1.587e-6, 1.613e-6, 2.578e-8
-0.396, 1.594e-6, 1.754e-6, 1.603e-7, 1.599e-6, 1.643e-6, 4.465e-8
-0.400, 1.604e-6, 1.787e-6, 1.835e-7, 1.610e-6, 1.674e-6, 6.337e-8
-0.404, 1.615e-6, 1.822e-6, 2.068e-7, 1.624e-6, 1.706e-6, 8.217e-8
-0.408, 1.626e-6, 1.856e-6, 2.307e-7, 1.636e-6, 1.738e-6, 1.019e-7
-0.412, 1.637e-6, 1.891e-6, 2.544e-7, 1.648e-6, 1.770e-6, 1.218e-7
-0.416, 1.647e-6, 1.926e-6, 2.788e-7, 1.660e-6, 1.802e-6, 1.422e-7
-0.420, 1.658e-6, 1.961e-6, 3.032e-7, 1.671e-6, 1.834e-6, 1.629e-7
-0.424, 1.668e-6, 1.995e-6, 3.272e-7, 1.683e-6, 1.866e-6, 1.829e-7
-0.428, 1.679e-6, 2.031e-6, 3.517e-7, 1.696e-6, 1.899e-6, 2.038e-7
-0.432, 1.689e-6, 2.065e-6, 3.764e-7, 1.706e-6, 1.932e-6, 2.252e-7
-0.436, 1.698e-6, 2.100e-6, 4.020e-7, 1.717e-6, 1.965e-6, 2.473e-7
-0.440, 1.709e-6, 2.136e-6, 4.264e-7, 1.730e-6, 1.998e-6, 2.687e-7
-0.444, 1.719e-6, 2.171e-6, 4.519e-7, 1.741e-6, 2.032e-6, 2.909e-7
-0.448, 1.728e-6, 2.205e-6, 4.767e-7, 1.752e-6, 2.065e-6, 3.130e-7
-0.452, 1.737e-6, 2.240e-6, 5.026e-7, 1.762e-6, 2.098e-6, 3.356e-7
-0.456, 1.747e-6, 2.275e-6, 5.276e-7, 1.773e-6, 2.132e-6, 3.580e-7
-0.460, 1.756e-6, 2.310e-6, 5.540e-7, 1.784e-6, 2.166e-6, 3.820e-7
-0.464, 1.764e-6, 2.344e-6, 5.795e-7, 1.793e-6, 2.198e-6, 4.052e-7
-0.468, 1.774e-6, 2.379e-6, 6.052e-7, 1.804e-6, 2.232e-6, 4.280e-7
-0.472, 1.783e-6, 2.414e-6, 6.310e-7, 1.814e-6, 2.266e-6, 4.519e-7
-0.476, 1.790e-6, 2.447e-6, 6.574e-7, 1.823e-6, 2.299e-6, 4.764e-7
-0.480, 1.799e-6, 2.481e-6, 6.828e-7, 1.833e-6, 2.333e-6, 4.997e-7
-0.484, 1.807e-6, 2.516e-6, 7.087e-7, 1.843e-6, 2.366e-6, 5.234e-7
-0.488, 1.816e-6, 2.550e-6, 7.348e-7, 1.854e-6, 2.401e-6, 5.473e-7
-0.492, 1.823e-6, 2.584e-6, 7.609e-7, 1.862e-6, 2.434e-6, 5.721e-7
-0.496, 1.830e-6, 2.617e-6, 7.869e-7, 1.871e-6, 2.467e-6, 5.965e-7
-0.500, 1.837e-6, 2.650e-6, 8.130e-7, 1.881e-6, 2.502e-6, 6.209e-7
-0.504, 1.845e-6, 2.684e-6, 8.394e-7, 1.891e-6, 2.536e-6, 6.455e-7
-0.508, 1.852e-6, 2.717e-6, 8.650e-7, 1.900e-6, 2.570e-6, 6.698e-7
-0.512, 1.859e-6, 2.750e-6, 8.908e-7, 1.908e-6, 2.603e-6, 6.949e-7
-0.516, 1.867e-6, 2.783e-6, 9.163e-7, 1.919e-6, 2.637e-6, 7.187e-7
-0.520, 1.874e-6, 2.816e-6, 9.421e-7, 1.926e-6, 2.671e-6, 7.444e-7
-0.524, 1.880e-6, 2.848e-6, 9.676e-7, 1.936e-6, 2.704e-6, 7.685e-7
-0.528, 1.887e-6, 2.881e-6, 9.935e-7, 1.944e-6, 2.738e-6, 7.940e-7
-0.532, 1.895e-6, 2.913e-6, 1.018e-6, 1.955e-6, 2.773e-6, 8.180e-7
-0.536, 1.903e-6, 2.946e-6, 1.044e-6, 1.965e-6, 2.807e-6, 8.428e-7
-0.540, 1.909e-6, 2.978e-6, 1.069e-6, 1.974e-6, 2.842e-6, 8.680e-7
-0.544, 1.917e-6, 3.011e-6, 1.094e-6, 1.983e-6, 2.876e-6, 8.927e-7
-0.548, 1.926e-6, 3.043e-6, 1.118e-6, 1.993e-6, 2.910e-6, 9.170e-7
-0.552, 1.933e-6, 3.076e-6, 1.142e-6, 2.004e-6, 2.945e-6, 9.412e-7
-0.556, 1.941e-6, 3.108e-6, 1.167e-6, 2.014e-6, 2.979e-6, 9.655e-7
-0.560, 1.949e-6, 3.140e-6, 1.192e-6, 2.025e-6, 3.015e-6, 9.908e-7
-0.564, 1.957e-6, 3.172e-6, 1.215e-6, 2.035e-6, 3.050e-6, 1.015e-6
-0.568, 1.966e-6, 3.205e-6, 1.239e-6, 2.046e-6, 3.085e-6, 1.039e-6
-0.572, 1.975e-6, 3.237e-6, 1.262e-6, 2.059e-6, 3.122e-6, 1.063e-6
-0.576, 1.984e-6, 3.270e-6, 1.286e-6, 2.070e-6, 3.157e-6, 1.087e-6
-0.580, 1.993e-6, 3.302e-6, 1.309e-6, 2.083e-6, 3.194e-6, 1.111e-6
-0.584, 2.002e-6, 3.334e-6, 1.332e-6, 2.095e-6, 3.230e-6, 1.134e-6
-0.588, 2.012e-6, 3.367e-6, 1.355e-6, 2.108e-6, 3.267e-6, 1.158e-6
-0.592, 2.022e-6, 3.399e-6, 1.377e-6, 2.122e-6, 3.303e-6, 1.181e-6
-0.596, 2.030e-6, 3.430e-6, 1.400e-6, 2.134e-6, 3.340e-6, 1.205e-6
-0.600, 2.040e-6, 3.463e-6, 1.422e-6, 2.149e-6, 3.377e-6, 1.228e-6
-0.604, 2.050e-6, 3.495e-6, 1.445e-6, 2.163e-6, 3.415e-6, 1.252e-6
-0.608, 2.061e-6, 3.527e-6, 1.466e-6, 2.177e-6, 3.451e-6, 1.274e-6
-0.612, 2.072e-6, 3.560e-6, 1.488e-6, 2.192e-6, 3.490e-6, 1.298e-6
-0.616, 2.082e-6, 3.592e-6, 1.510e-6, 2.207e-6, 3.528e-6, 1.321e-6
-0.620, 2.093e-6, 3.625e-6, 1.532e-6, 2.223e-6, 3.567e-6, 1.344e-6
-0.624, 2.103e-6, 3.656e-6, 1.553e-6, 2.238e-6, 3.605e-6, 1.367e-6
-0.628, 2.116e-6, 3.689e-6, 1.574e-6, 2.255e-6, 3.645e-6, 1.390e-6
-0.632, 2.128e-6, 3.722e-6, 1.594e-6, 2.273e-6, 3.685e-6, 1.412e-6
-0.636, 2.139e-6, 3.755e-6, 1.616e-6, 2.289e-6, 3.725e-6, 1.436e-6
-0.640, 2.153e-6, 3.789e-6, 1.636e-6, 2.308e-6, 3.766e-6, 1.458e-6
-0.644, 2.165e-6, 3.821e-6, 1.656e-6, 2.325e-6, 3.806e-6, 1.481e-6
-0.648, 2.179e-6, 3.855e-6, 1.676e-6, 2.344e-6, 3.848e-6, 1.504e-6
-0.652, 2.193e-6, 3.888e-6, 1.696e-6, 2.365e-6, 3.890e-6, 1.526e-6
-0.656, 2.206e-6, 3.922e-6, 1.716e-6, 2.384e-6, 3.932e-6, 1.548e-6
-0.660, 2.222e-6, 3.957e-6, 1.735e-6, 2.405e-6, 3.975e-6, 1.571e-6
-0.664, 2.237e-6, 3.991e-6, 1.754e-6, 2.426e-6, 4.018e-6, 1.593e-6
-0.668, 2.252e-6, 4.026e-6, 1.774e-6, 2.448e-6, 4.063e-6, 1.615e-6
-0.672, 2.269e-6, 4.061e-6, 1.793e-6, 2.470e-6, 4.108e-6, 1.638e-6
-0.676, 2.286e-6, 4.098e-6, 1.811e-6, 2.495e-6, 4.155e-6, 1.660e-6
-0.680, 2.303e-6, 4.133e-6, 1.830e-6, 2.518e-6, 4.200e-6, 1.682e-6
-0.684, 2.322e-6, 4.170e-6, 1.848e-6, 2.544e-6, 4.248e-6, 1.704e-6
-0.688, 2.340e-6, 4.207e-6, 1.867e-6, 2.569e-6, 4.295e-6, 1.726e-6
-0.692, 2.359e-6, 4.245e-6, 1.886e-6, 2.595e-6, 4.344e-6, 1.749e-6
-0.696, 2.379e-6, 4.283e-6, 1.904e-6, 2.623e-6, 4.393e-6, 1.770e-6
-0.700, 2.401e-6, 4.322e-6, 1.921e-6, 2.651e-6, 4.443e-6, 1.792e-6
